   1.00200000000000  116.423405632383  58.9716847382816
   1.00500000000000  61.8216684282791  44.0745613532563
   1.00800000000000  38.5098494369817  35.2788805290605
   1.01100000000000  117.918239549159  57.2622070545950
   1.01400000000000  25.9266522562869  31.7562784741501
   1.01700000000000  37.5599129034603  36.0636872648735
   1.02000000000000  37.8702038186815  35.0893865475499
   1.02300000000000  78.2704938866439  48.8265990035319
   1.02600000000000  75.7747809469309  47.2692213051745
   1.02900000000000  77.8804915172838  48.5832270765603
   1.03200000000000  0.000000000000000  18.2508303586763
   1.03500000000000  37.7652179044244  36.2608415023210
   1.03800000000000  116.431942945382  57.5858605971449
   1.04100000000000  25.7216235790604  31.5051274250661
   1.04400000000000  37.3708413674288  36.0297279356469
   1.04700000000000  65.2425100429191  44.6723379681787
   1.05000000000000  168.671325548264  57.8345568803436
   1.05300000000000  139.826039873101  50.6795888677523
   1.05600000000000  167.967076070055  54.1925785673019
   1.05900000000000  239.750317961866  64.9247038544943
   1.06200000000000  168.078140234408  55.4901939826844
   1.06500000000000  85.4144905254463  40.0784985759779
   1.06800000000000  155.791829197690  53.1074239718471
   1.07100000000000  166.949499513953  54.4041708009963
   1.07400000000000  85.5556854734554  40.1447763288414
   1.07700000000000  207.417087986128  60.4115391276035
   1.08000000000000  134.363145837785  49.0838695258296
   1.08300000000000  67.1765629576453  36.0054175744302
   1.08600000000000  153.334897997259  51.7542001744858
   1.08900000000000  145.465422531997  50.6425756899973
   1.09200000000000  130.894861722909  48.6235191022879
   1.09500000000000  129.610867810271  48.1936892428632
   1.09800000000000  174.853985062761  54.8072317630439
   1.10100000000000  148.389659814267  51.8247038231179
   1.10400000000000  116.675534246772  45.6176786115897
   1.10700000000000  98.0340825607787  41.9897931515264
   1.11000000000000  95.1999947457299  42.3870924715126
   1.11300000000000  198.828206282439  59.7673314369208
   1.11600000000000  136.888977108114  49.9641957225320
   1.11900000000000  212.475353277640  60.7837188413873
   1.12200000000000  55.6816297870167  32.9168488856566
   1.12500000000000  186.367863553624  57.5061131321620
   1.12800000000000  103.803541693806  44.1291505207121
   1.13100000000000  169.676480183813  55.6933880294285
   1.13400000000000  142.484244766458  50.4774177787787
   1.13700000000000  164.156390968075  54.5013395939210
   1.14000000000000  115.525368147634  45.9265085845483
   1.14300000000000  226.961488596906  62.9926249327197
   1.14600000000000  118.301442792704  46.2531784026186
   1.14900000000000  155.322785617549  51.7629495746571
   1.15200000000000  112.692817482323  45.4919258993721
   1.15500000000000  128.965105394267  48.3504436307271
   1.15800000000000  200.104462622396  60.0593116441325
   1.16100000000000  307.096760601472  74.0743472861484
   1.16400000000000  279.204049072512  69.1221149666785
   1.16700000000000  141.248812716679  50.4529713494417
   1.17000000000000  256.062286675265  66.6628570928120
   1.17300000000000  298.955438021755  72.2648518854577
   1.17600000000000  177.182588356534  56.0225892700088
   1.17900000000000  180.286808478551  56.0757206772645
   1.18200000000000  215.423730434158  62.3234801802425
   1.18500000000000  107.536262235765  44.1586706988942
   1.18800000000000  324.672572524123  77.1953120328254
   1.19100000000000  231.058724829053  64.3080245009647
   1.19400000000000  201.232757003887  60.0461427018065
   1.19700000000000  363.453138349175  80.4517069959831
   1.20000000000000  302.236545177595  73.0485938007237
   1.20300000000000  82.1153984591604  40.0360016799341
   1.20600000000000  239.841833075496  64.5066970682771
   1.20900000000000  132.946973714998  48.6531300162329
   1.21200000000000  303.831372512426  72.6205082407091
   1.21500000000000  282.362850695107  70.0196094432785
   1.21800000000000  272.240273776891  69.6033555352036
   1.22100000000000  156.268658572113  53.5565278214447
   1.22400000000000  293.935390479161  72.4679828906629
   1.22700000000000  331.977282218619  76.1796509674916
   1.23000000000000  225.170909741132  63.0663475431232
   1.23300000000000  224.040137397476  63.3342350505665
   1.23600000000000  230.643798666279  64.5200388982730
   1.23900000000000  166.156593706933  54.1816975081981
   1.24200000000000  170.421605635604  55.2538191026463
   1.24500000000000  188.927720496227  58.0646147806865
   1.24800000000000  236.561988601713  64.1346805478185
   1.25100000000000  302.978717902201  72.2321876817851
   1.25400000000000  367.409563815717  80.3811664442468
   1.25700000000000  215.041424330938  61.6752254844246
   1.26000000000000  156.589595632459  53.2897917333466
   1.26300000000000  268.714279133403  68.9187364252333
   1.26600000000000  152.523369637060  51.9060288913598
   1.26900000000000  209.829552677502  60.3753388396572
   1.27200000000000  227.914300514840  63.5011713926673
   1.27500000000000  365.826109464475  81.3315160097093
   1.27800000000000  232.822510556399  63.8955577844115
   1.28100000000000  267.895047846139  68.9218953398082
   1.28400000000000  183.749297495910  56.5580988498371
   1.28700000000000  357.755720502727  78.4793544748236
   1.29000000000000  215.931617142403  62.6503631340577
   1.29300000000000  290.098147066871  71.4868464285477
   1.29600000000000  335.801451088999  76.9525446124481
   1.29900000000000  340.658594664584  77.0739417831183
   1.30200000000000  228.879067043732  63.8114551470299
   1.30500000000000  281.066720620651  70.3594797505803
   1.30800000000000  359.359715892957  78.5753444507215
   1.31100000000000  263.406901226067  67.9021206384663
   1.31400000000000  272.022342511552  68.4589259282958
   1.31700000000000  199.738091742259  59.6650306221357
   1.32000000000000  319.453262680899  74.0812480096403
   1.32300000000000  308.135621793627  73.3913794625157
   1.32600000000000  390.165305887461  82.9010837186530
   1.32900000000000  360.655817552057  78.3429628186772
   1.33200000000000  289.290201745122  71.4617193693962
   1.33500000000000  477.485864823675  90.8030309698565
   1.33800000000000  407.471787064548  84.1249605116890
   1.34100000000000  380.957257385384  81.9644994673858
   1.34400000000000  289.063006597016  71.5989492188967
   1.34700000000000  307.213504236878  72.1383991118725
   1.35000000000000  318.477067643306  74.6063821779442
   1.35300000000000  385.822037697672  82.4089607548368
   1.35600000000000  303.758749717777  72.3557295826143
   1.35900000000000  274.955265413723  68.9008112762528
   1.36200000000000  374.539075036059  80.8817528643642
   1.36500000000000  409.155929051548  82.6965675775552
   1.36800000000000  364.715767588619  78.7931160125466
   1.37100000000000  386.804664233194  81.6772216597689
   1.37400000000000  319.770432804887  75.1289949734274
   1.37700000000000  313.841427566274  73.9048849000396
   1.38000000000000  399.866391148229  82.6021329528580
   1.38300000000000  407.481641621345  84.5974889564795
   1.38600000000000  293.595737544010  71.9129828016840
   1.38900000000000  330.222665381621  75.7264831263185
   1.39200000000000  336.996389383753  76.4408878021593
   1.39500000000000  353.859102938001  78.2047310485611
   1.39800000000000  419.234883098613  86.7793005528565
   1.40100000000000  395.825607082861  82.3143040897843
   1.40400000000000  506.444289516859  93.4651747322044
   1.40700000000000  302.562598060485  71.4121453068082
   1.41000000000000  307.014325089575  73.2467328129849
   1.41300000000000  571.555100539299  99.8431250876233
   1.41600000000000  343.772775521182  76.6934558207655
   1.41900000000000  381.416512993216  81.9864377657663
   1.42200000000000  475.246985149077  91.8560817215064
   1.42500000000000  444.527386714562  88.8885366745138
   1.42800000000000  457.746106831984  89.4224436775110
   1.43100000000000  458.858321343116  90.3172682116764
   1.43400000000000  439.037611122656  86.9562456084426
   1.43700000000000  463.631222904841  90.1047608503404
   1.44000000000000  456.531511038373  88.8673280726237
   1.44300000000000  401.172654270593  83.1836868878805
   1.44600000000000  359.495544860285  79.8110533564429
   1.44900000000000  475.387372094374  90.1945993987530
   1.45200000000000  456.512415445088  89.2660949908814
   1.45500000000000  464.047626068581  88.0798647821053
   1.45800000000000  572.349035730469  99.0241234719833
   1.46100000000000  500.717094501747  93.2532843654994
   1.46400000000000  492.844501715407  92.7788898785501
   1.46700000000000  568.357969433402  98.2447167997318
   1.47000000000000  505.208941090608  92.2476092756758
   1.47300000000000  340.941417469138  77.6352061963052
   1.47600000000000  461.115010303505  87.7449808601449
   1.47900000000000  434.352395428732  86.1654924833091
   1.48200000000000  392.297744601282  82.8504287784835
   1.48500000000000  498.538819947502  92.8618295476556
   1.48800000000000  430.230450394618  86.1795852832740
   1.49100000000000  605.612417592590  103.087708296283
   1.49400000000000  555.170609511900  97.4659524622655
   1.49700000000000  359.555333411598  78.4264887428006
   1.50000000000000  465.810217557235  89.1753038246361
   1.50300000000000  583.242559439698  101.996476496551
   1.50600000000000  456.031256225379  88.4751966126145
   1.50900000000000  566.424561635044  97.6637733746372
   1.51200000000000  459.957205276053  89.9909186732641
   1.51500000000000  525.413696950946  93.1216373981666
   1.51800000000000  574.610408174056  98.4665914842245
   1.52100000000000  455.983297284040  87.9379735839714
   1.52400000000000  612.789444608968  102.713840186697
   1.52700000000000  461.333152315080  89.6308244928797
   1.53000000000000  634.693989123140  104.738603859710
   1.53300000000000  410.454004843034  85.2599748544307
   1.53600000000000  464.365903443504  87.8256265503027
   1.53900000000000  619.285696050993  103.422085311567
   1.54200000000000  512.551853002794  94.7593829622602
   1.54500000000000  697.638372537171  111.107865016390
   1.54800000000000  593.609061873024  99.9572636374572
   1.55100000000000  618.991995661766  103.635419577050
   1.55400000000000  607.628527213148  103.299632218474
   1.55700000000000  462.945052229450  88.2812833006681
   1.56000000000000  595.595210345614  101.322047692524
   1.56300000000000  600.797506914158  101.670318251002
   1.56600000000000  545.447008230112  96.3927188920810
   1.56900000000000  466.374937217199  90.0643917210745
   1.57200000000000  544.177655421144  97.5177315899620
   1.57500000000000  594.524491459115  101.723333892821
   1.57800000000000  425.181147679376  85.5174375198184
   1.58100000000000  419.379494342942  84.9167236357986
   1.58400000000000  561.696479218504  97.5019005434499
   1.58700000000000  577.630283222594  98.6518019181465
   1.59000000000000  577.349555337192  100.165535706744
   1.59300000000000  586.207009312937  101.274828636710
   1.59600000000000  585.788568358197  100.582110583217
   1.59900000000000  646.926970873095  107.131791927888
   1.60200000000000  605.974585984067  103.465411337888
   1.60500000000000  537.033263820611  96.1934546413556
   1.60800000000000  499.550144012592  91.7291281983068
   1.61100000000000  639.877099380114  104.410459077684
   1.61400000000000  486.049659155449  91.9239282072878
   1.61700000000000  490.446422280442  90.8925845316123
   1.62000000000000  439.153011344590  88.1627637353403
   1.62300000000000  495.874838580869  94.3234070280261
   1.62600000000000  513.247572247361  93.2822814092204
   1.62900000000000  550.446700239319  97.0185204760238
   1.63200000000000  511.066090991538  95.0282819631846
   1.63500000000000  611.969691623457  102.929799409264
   1.63800000000000  667.048207566560  106.217640459328
   1.64100000000000  540.653586197869  95.8987296165934
   1.64400000000000  634.271896706673  104.634577602449
   1.64700000000000  524.873533301728  95.5498724140469
   1.65000000000000  423.812687381680  87.0373835590162
   1.65300000000000  548.303781262857  98.0919237449878
   1.65600000000000  498.437207456151  92.2213620021202
   1.65900000000000  581.388137547403  100.446409604710
   1.66200000000000  753.592275753357  115.167530887674
   1.66500000000000  732.825475195933  111.687230655258
   1.66800000000000  752.920068050489  111.948685097052
   1.67100000000000  675.516725735432  107.169679393695
   1.67400000000000  681.761461866538  109.586765954995
   1.67700000000000  610.863551620123  102.908109653512
   1.68000000000000  726.755907962362  113.105133808114
   1.68300000000000  705.047599843457  111.285074749694
   1.68600000000000  900.804302218875  124.256311910595
   1.68900000000000  699.465426480844  109.931198422398
   1.69200000000000  459.886981774223  89.7387497492581
   1.69500000000000  512.529466248466  94.2176263815238
   1.69800000000000  708.674895228040  110.134512286851
   1.70100000000000  790.513723569619  117.547720546096
   1.70400000000000  551.389499365368  97.7566422822554
   1.70700000000000  634.735321338238  104.180252387479
   1.71000000000000  748.721853209796  112.687605039552
   1.71300000000000  804.745653458144  119.929412872156
   1.71600000000000  745.968699498790  112.614158511817
   1.71900000000000  822.893134960191  118.344275193053
   1.72200000000000  851.787640160354  122.820486171643
   1.72500000000000  920.389579693426  125.666468923287
   1.72800000000000  604.504312404206  102.369626903318
   1.73100000000000  800.965384212526  117.076055239113
   1.73400000000000  735.579766901905  112.598127637185
   1.73700000000000  847.767221414549  117.831542053966
   1.74000000000000  745.071967780475  114.251122324123
   1.74300000000000  724.916242023099  113.397249739139
   1.74600000000000  749.971962569551  113.197973851763
   1.74900000000000  882.159752868997  122.588129558813
   1.75200000000000  668.247638429619  105.241005828950
   1.75500000000000  704.416086279193  109.916346551774
   1.75800000000000  653.618994849783  106.227072621043
   1.76100000000000  655.933767714972  106.728284529802
   1.76400000000000  695.183692563932  109.081053444329
   1.76700000000000  820.131567961261  118.521551697980
   1.77000000000000  679.499244996943  108.563648090278
   1.77300000000000  662.739005992989  108.905777182351
   1.77600000000000  889.755301660557  121.672531020800
   1.77900000000000  720.215379311350  110.815400429174
   1.78200000000000  827.185605979411  118.208221823425
   1.78500000000000  773.073009453013  113.787921490615
   1.78800000000000  698.846625933090  109.403583602661
   1.79100000000000  867.512356332499  121.704534537928
   1.79400000000000  756.632659146829  114.830858228049
   1.79700000000000  767.195442809081  114.237600284633
   1.80000000000000  951.158322816200  129.221503811242
   1.80300000000000  810.541079811107  119.570965730563
   1.80600000000000  658.101745581368  103.036308985777
   1.80900000000000  779.872728791658  117.110399036954
   1.81200000000000  871.380263573906  123.963236705391
   1.81500000000000  691.350790260439  107.756902758975
   1.81800000000000  772.881856421943  113.988276349721
   1.82100000000000  768.465008056532  115.818702669771
   1.82400000000000  686.160975497143  108.147938094596
   1.82700000000000  782.662972459408  116.161469527477
   1.83000000000000  687.615526846975  107.995411909467
   1.83300000000000  759.533366378944  114.908571971314
   1.83600000000000  880.299144339592  122.753954079239
   1.83900000000000  750.954359577057  114.135543703343
   1.84200000000000  837.322422859899  119.731279490128
   1.84500000000000  957.901976141269  127.292674150263
   1.84800000000000  732.236545332433  113.139708738849
   1.85100000000000  767.260815961145  114.570501190507
   1.85400000000000  1069.42131987795  137.801228430721
   1.85700000000000  1165.09816207704  141.666646008514
   1.86000000000000  928.919627628848  127.940331534434
   1.86300000000000  873.611281062698  124.910313286212
   1.86600000000000  902.468031217178  123.538225791077
   1.86900000000000  824.273840510641  118.787038998370
   1.87200000000000  885.878645562136  124.597969736127
   1.87500000000000  901.048404080377  123.564009577465
   1.87800000000000  887.047644338633  123.970590870196
   1.88100000000000  895.192171627691  125.406963316568
   1.88400000000000  683.009807130703  107.693068694264
   1.88700000000000  670.300976739554  107.402991982392
   1.89000000000000  648.181320608414  106.656883658361
   1.89300000000000  855.263828022411  121.542821091409
   1.89600000000000  853.554303031028  119.971187129107
   1.89900000000000  939.831425252973  127.191460246315
   1.90200000000000  855.909296643532  121.320137343925
   1.90500000000000  958.212893134525  127.879519517335
   1.90800000000000  978.067819155044  129.784154147877
   1.91100000000000  1027.86529802430  132.256877396120
   1.91400000000000  859.209011322379  122.039250356252
   1.91700000000000  794.772193420125  115.429666889304
   1.92000000000000  784.300838593899  115.537918002352
   1.92300000000000  938.507944555073  128.233878241082
   1.92600000000000  1093.69341462825  136.356766308944
   1.92900000000000  1028.41263130197  134.310281355990
   1.93200000000000  633.271248954504  104.540707627075
   1.93500000000000  937.593894814203  126.224810494600
   1.93800000000000  721.006161181737  113.054989901393
   1.94100000000000  749.364909585598  114.367555210227
   1.94400000000000  969.354783503096  129.711896503641
   1.94700000000000  954.451960976048  128.991186768740
   1.95000000000000  1128.33739479308  138.680347692907
   1.95300000000000  879.081997680025  125.651509488315
   1.95600000000000  806.318394842496  118.976840372859
   1.95900000000000  832.304851364332  119.387718785079
   1.96200000000000  831.723998324957  118.071174385442
   1.96500000000000  899.617286629242  122.604343121979
   1.96800000000000  937.647097641059  126.632614209436
   1.97100000000000  912.436257875793  125.328836767472
   1.97400000000000  738.319223982498  113.718416499633
   1.97700000000000  878.888071633588  124.101699940532
   1.98000000000000  728.209172429553  112.653265270723
   1.98300000000000  1047.93019106281  134.972410176253
   1.98600000000000  894.653835137295  122.706835391577
   1.98900000000000  857.112081774533  120.541487919366
   1.99200000000000  829.671943608488  119.895279820853
   1.99500000000000  933.124672736223  123.453632640973
   1.99800000000000  827.198358835452  118.880688422709
   2.00100000000000  922.394124773060  126.206555410640
   2.00400000000000  1057.39509948561  135.268601625037
   2.00700000000000  1174.11689957224  142.196507979681
   2.01000000000000  803.581450380287  118.108111284296
   2.01300000000000  830.226211147925  119.443665837676
   2.01600000000000  967.901493704246  128.067790118793
   2.01900000000000  949.977066268067  128.302178341319
   2.02200000000000  1029.23376359550  133.480135372718
   2.02500000000000  988.159104469364  127.774245969221
   2.02800000000000  873.994033582366  123.561139074724
   2.03100000000000  857.640826447676  123.464859509121
   2.03400000000000  942.780468582763  128.964254767556
   2.03700000000000  908.486978309929  125.717923341759
   2.04000000000000  923.809763455422  126.151394969426
   2.04300000000000  761.221292797873  115.163349258348
   2.04600000000000  943.219749226433  127.140681770909
   2.04900000000000  665.208379667768  107.476806478469
   2.05200000000000  949.116240708342  127.882741562352
   2.05500000000000  1087.82023117927  136.983548861411
   2.05800000000000  1110.67940083349  139.987580027899
   2.06100000000000  1107.81023360927  138.554876509397
   2.06400000000000  971.169476394363  129.365623841866
   2.06700000000000  1177.35672161591  142.363220545689
   2.07000000000000  1089.40596763934  137.243584911393
   2.07300000000000  1107.55380507860  136.863938353291
   2.07600000000000  1097.49827832442  136.964469586762
   2.07900000000000  767.606091555069  114.184346891543
   2.08200000000000  1072.43154755531  135.108579167008
   2.08500000000000  1020.07020828458  130.145606812503
   2.08800000000000  1125.93930843685  142.015915180034
   2.09100000000000  901.004868612350  125.728006434055
   2.09400000000000  1024.22250130494  132.283887665828
   2.09700000000000  894.092068500214  124.740397620088
   2.10000000000000  985.678714818163  132.797392624030
   2.10300000000000  840.477713509704  120.481107080607
   2.10600000000000  773.931632934428  115.441847576383
   2.10900000000000  969.245870374162  130.448782680232
   2.11200000000000  1054.49566740041  134.854037749975
   2.11500000000000  1115.12020622056  138.860732313815
   2.11800000000000  1057.30756323569  135.838702392534
   2.12100000000000  1005.66436053099  129.674635490805
   2.12400000000000  962.285349082558  128.360357028900
   2.12700000000000  918.132263401494  124.881543651444
   2.13000000000000  1125.17665688202  139.832096047942
   2.13300000000000  891.257525168688  123.157093621692
   2.13600000000000  1157.28224701883  139.971562238007
   2.13900000000000  944.844873706480  127.547325920142
   2.14200000000000  903.467320899652  123.114653077736
   2.14500000000000  1038.88131224400  134.294564613756
   2.14800000000000  1130.87619697696  138.712233192658
   2.15100000000000  1083.72630247704  136.582840094490
   2.15400000000000  1252.07373876164  146.553705268188
   2.15700000000000  1132.73568637819  138.968017411067
   2.16000000000000  1079.07471101316  135.654081908357
   2.16300000000000  1205.53675446207  142.933561909134
   2.16600000000000  1040.97976839696  133.127034788293
   2.16900000000000  1234.66458033204  146.249551330950
   2.17200000000000  1048.92958911429  133.763517881459
   2.17500000000000  956.260113219029  127.371880933917
   2.17800000000000  1054.42199804777  135.308484705298
   2.18100000000000  1219.79588637500  143.931305656848
   2.18400000000000  1025.85929722154  132.768480914499
   2.18700000000000  1144.12182956336  141.386991642683
   2.19000000000000  1050.54458116339  134.447532000808
   2.19300000000000  1101.29845835083  137.114428027941
   2.19600000000000  1098.36915168081  137.589876919954
   2.19900000000000  918.914788003102  126.616987118043
   2.20200000000000  1092.26611530409  135.878258573949
   2.20500000000000  1117.93945358748  141.255424306273
   2.20800000000000  1113.16945747334  140.000044335774
   2.21100000000000  1127.05035565176  138.423357084704
   2.21400000000000  1338.80058268347  153.219587805683
   2.21700000000000  1379.60788716484  155.346896178173
   2.22000000000000  921.555584306511  126.172173282777
   2.22300000000000  1012.03427878535  132.099499327377
   2.22600000000000  1194.96058826896  144.063056701488
   2.22900000000000  1193.80451297077  143.355238160366
   2.23200000000000  1173.50725118833  139.343072460017
   2.23500000000000  1029.26784495968  131.844745016543
   2.23800000000000  1214.59629485387  145.316091740627
   2.24100000000000  1170.26515724167  140.274057521396
   2.24400000000000  1011.30587157452  134.121047310437
   2.24700000000000  963.807192379480  128.296054707302
   2.25000000000000  1503.22083874369  160.858742878082
   2.25300000000000  1119.53102596822  136.983757368896
   2.25600000000000  1214.51803897882  145.092612101582
   2.25900000000000  1445.86471840405  158.240007695372
   2.26200000000000  1197.51235251085  143.079652763360
   2.26500000000000  913.466636148838  125.817023254316
   2.26800000000000  1235.54881562646  146.013799710004
   2.27100000000000  1176.49116017765  138.990909946765
   2.27400000000000  1150.86114763261  141.324983567332
   2.27700000000000  1070.01333291680  137.993279093492
   2.28000000000000  1219.90271378255  143.573588343566
   2.28300000000000  1541.77605194367  162.255968449060
   2.28600000000000  1374.54604454986  154.227238422352
   2.28900000000000  1181.18402996841  142.303629238075
   2.29200000000000  1256.79471555405  145.717355183179
   2.29500000000000  1145.21897314246  141.338424769463
   2.29800000000000  1292.22701699756  149.260401766665
   2.30100000000000  1247.31031300582  146.154085737934
   2.30400000000000  1303.14185237796  151.219878545375
   2.30700000000000  969.452780289370  130.190654720030
   2.31000000000000  1222.64639165435  143.366876792759
   2.31300000000000  1641.03191182530  166.837293163948
   2.31600000000000  1320.03199442065  153.066148876226
   2.31900000000000  1284.11005854207  146.748086193459
   2.32200000000000  1305.78114914382  150.943448024569
   2.32500000000000  1147.14071066633  140.214695334855
   2.32800000000000  1186.35561560117  142.203517263355
   2.33100000000000  1270.72318023506  147.921266863920
   2.33400000000000  1162.54576490253  141.582646628923
   2.33700000000000  1435.23318896595  156.910383159120
   2.34000000000000  1242.94488349656  145.962428895997
   2.34300000000000  1339.51374731819  151.319048876949
   2.34600000000000  1467.69819798542  158.814461035191
   2.34900000000000  1157.03171399033  139.523308180445
   2.35200000000000  1076.22216361266  135.894086020832
   2.35500000000000  1296.05429343281  149.901577385823
   2.35800000000000  1102.65691292677  136.737830699047
   2.36100000000000  1195.88196199670  142.250520161778
   2.36400000000000  1362.54999089633  155.672619316640
   2.36700000000000  1320.72307412813  150.412673909078
   2.37000000000000  1163.87226758714  139.290413888837
   2.37300000000000  1190.45769439840  142.246818247364
   2.37600000000000  1338.46410704708  151.996495565151
   2.37900000000000  1094.46538675436  136.103820710504
   2.38200000000000  1140.72516881736  141.827351760873
   2.38500000000000  1334.86415430604  152.964571513306
   2.38800000000000  1347.56780499333  149.702118584876
   2.39100000000000  1343.93072990522  150.909378143647
   2.39400000000000  1131.65317923126  139.621229481585
   2.39700000000000  1166.74874951596  140.142184160826
   2.40000000000000  1321.85006552662  149.433127908418
   2.40300000000000  1298.03222233295  147.385228496095
   2.40600000000000  1452.14754055693  157.931358034943
   2.40900000000000  1178.44507793985  139.500268393575
   2.41200000000000  1396.97323145121  154.893481484805
   2.41500000000000  1405.04877480917  155.096511113680
   2.41800000000000  1205.87858312029  142.680713071089
   2.42100000000000  1375.04140611262  154.356468942758
   2.42400000000000  1512.12467240880  162.647091660331
   2.42700000000000  1475.53845050763  159.295200622823
   2.43000000000000  1010.44117953931  130.748850043060
   2.43300000000000  1540.13190004143  163.156014820660
   2.43600000000000  1328.85666552942  151.177868538586
   2.43900000000000  1480.25875475449  158.994743918562
   2.44200000000000  1217.02797121500  144.046113104468
   2.44500000000000  1472.84548939668  157.335543776523
   2.44800000000000  1370.50409925532  151.555224109787
   2.45100000000000  1432.70596979267  157.263144909768
   2.45400000000000  1298.49555870043  149.728915655037
   2.45700000000000  1578.16448217181  162.008958928332
   2.46000000000000  1491.29039295646  159.132574133369
   2.46300000000000  1713.51248332195  172.125129422112
   2.46600000000000  1346.43786171299  152.013695739324
   2.46900000000000  1242.93129415211  142.457598577186
   2.47200000000000  1403.31815196931  156.243735803309
   2.47500000000000  1475.89396609765  158.637433548676
   2.47800000000000  1400.20858398579  153.073933011511
   2.48100000000000  1498.06691337717  159.564440155229
   2.48400000000000  1553.79503069556  162.596052125110
   2.48700000000000  1668.64618306291  168.609320937356
   2.49000000000000  1568.32549366283  162.753694116759
   2.49300000000000  1421.31197061820  156.461202338071
   2.49600000000000  1584.84115085989  164.069267934686
