   1.00200000000000  116.423405632383  58.9716847382816
   1.00500000000000  61.8216684282791  44.0745613532563
   1.00800000000000  38.5098494369817  35.2788805290605
   1.01100000000000  117.918239549159  57.2622070545950
   1.01400000000000  25.9266522562869  31.7562784741501
   1.01700000000000  37.5599129034603  36.0636872648735
   1.02000000000000  37.8702038186815  35.0893865475499
   1.02300000000000  78.2704938866439  48.8265990035319
   1.02600000000000  75.7747809469309  47.2692213051745
   1.02900000000000  77.8804915172838  48.5832270765603
   1.03200000000000  0.000000000000000  18.2508303586763
   1.03500000000000  37.7652179044244  36.2608415023210
   1.03800000000000  116.431942945382  57.5858605971449
   1.04100000000000  25.7216235790604  31.5051274250661
   1.04400000000000  37.3708413674288  36.0297279356469
   1.04700000000000  65.2425100429191  44.6723379681787
   1.05000000000000  168.671325548264  57.8345568803436
   1.05300000000000  139.826039873101  50.6795888677523
   1.05600000000000  167.967076070055  54.1925785673019
   1.05900000000000  239.750317961866  64.9247038544943
   1.06200000000000  168.078140234408  55.4901939826844
   1.06500000000000  85.4144905254463  40.0784985759779
   1.06800000000000  155.791829197690  53.1074239718471
   1.07100000000000  166.949499513953  54.4041708009963
   1.07400000000000  85.5556854734554  40.1447763288414
   1.07700000000000  207.417087986128  60.4115391276035
   1.08000000000000  134.363145837785  49.0838695258296
   1.08300000000000  67.1765629576453  36.0054175744302
   1.08600000000000  153.334897997259  51.7542001744858
   1.08900000000000  145.465422531997  50.6425756899973
   1.09200000000000  130.894861722909  48.6235191022879
   1.09500000000000  129.610867810271  48.1936892428632
   1.09800000000000  174.853985062761  54.8072317630439
   1.10100000000000  148.389659814267  51.8247038231179
   1.10400000000000  116.675534246772  45.6176786115897
   1.10700000000000  98.0340825607787  41.9897931515264
   1.11000000000000  95.1999947457299  42.3870924715126
   1.11300000000000  198.828206282439  59.7673314369208
   1.11600000000000  136.888977108114  49.9641957225320
   1.11900000000000  212.475353277640  60.7837188413873
   1.12200000000000  55.6816297870167  32.9168488856566
   1.12500000000000  186.367863553624  57.5061131321620
   1.12800000000000  103.803541693806  44.1291505207121
   1.13100000000000  169.676480183813  55.6933880294285
   1.13400000000000  142.484244766458  50.4774177787787
   1.13700000000000  164.156390968075  54.5013395939210
   1.14000000000000  115.525368147634  45.9265085845483
   1.14300000000000  226.961488596906  62.9926249327197
   1.14600000000000  118.301442792704  46.2531784026186
   1.14900000000000  155.322785617549  51.7629495746571
   1.15200000000000  112.692817482323  45.4919258993721
   1.15500000000000  128.965105394267  48.3504436307271
   1.15800000000000  200.104462622396  60.0593116441325
   1.16100000000000  307.096760601472  74.0743472861484
   1.16400000000000  279.204049072512  69.1221149666785
   1.16700000000000  141.248812716679  50.4529713494417
   1.17000000000000  256.062286675265  66.6628570928120
   1.17300000000000  298.955438021755  72.2648518854577
   1.17600000000000  177.182588356534  56.0225892700088
   1.17900000000000  180.286808478551  56.0757206772645
   1.18200000000000  215.423730434158  62.3234801802425
   1.18500000000000  107.536262235765  44.1586706988942
   1.18800000000000  324.672572524123  77.1953120328254
   1.19100000000000  231.058724829053  64.3080245009647
   1.19400000000000  201.232757003887  60.0461427018065
   1.19700000000000  363.453138349175  80.4517069959831
   1.20000000000000  302.236545177595  73.0485938007237
   1.20300000000000  82.1153984591604  40.0360016799341
   1.20600000000000  239.841833075496  64.5066970682771
   1.20900000000000  132.946973714998  48.6531300162329
   1.21200000000000  303.831372512426  72.6205082407091
   1.21500000000000  282.362850695107  70.0196094432785
   1.21800000000000  272.240273776891  69.6033555352036
   1.22100000000000  156.268658572113  53.5565278214447
   1.22400000000000  293.935390479161  72.4679828906629
   1.22700000000000  331.977282218619  76.1796509674916
   1.23000000000000  225.170909741132  63.0663475431232
   1.23300000000000  224.040137397476  63.3342350505665
   1.23600000000000  230.643798666279  64.5200388982730
   1.23900000000000  166.156593706933  54.1816975081981
   1.24200000000000  170.421605635604  55.2538191026463
   1.24500000000000  188.927720496227  58.0646147806865
   1.24800000000000  236.561988601713  64.1346805478185
   1.25100000000000  302.978717902201  72.2321876817851
   1.25400000000000  367.409563815717  80.3811664442468
   1.25700000000000  215.041424330938  61.6752254844246
   1.26000000000000  156.589595632459  53.2897917333466
   1.26300000000000  268.714279133403  68.9187364252333
   1.26600000000000  152.523369637060  51.9060288913598
   1.26900000000000  209.829552677502  60.3753388396572
   1.27200000000000  227.914300514840  63.5011713926673
   1.27500000000000  365.826109464475  81.3315160097093
   1.27800000000000  232.822510556399  63.8955577844115
   1.28100000000000  267.895047846139  68.9218953398082
   1.28400000000000  183.749297495910  56.5580988498371
   1.28700000000000  357.755720502727  78.4793544748236
   1.29000000000000  215.931617142403  62.6503631340577
   1.29300000000000  290.098147066871  71.4868464285477
   1.29600000000000  335.801451088999  76.9525446124481
   1.29900000000000  340.658594664584  77.0739417831183