PRL10/1 #68420-21: NBS Si (SRM640c) in 5mm van can FF                           
Instrument parameter file cycle_095.prl                                         
BANK  1  2528   632 RALF    48008   64    64331 0.0010 ALT                      
   48008  23551  376   48072  22826  367   48136  22372  363   48200  22948  370
   48264  22799  367   48328  22934  369   48392  22503  364   48456  23253  372
   48520  22385  363   48584  23611  374   48648  23001  370   48712  22852  369
   48776  22606  367   48840  22699  368   48904  23371  374   48968  22791  369
   49032  22670  369   49096  23761  378   49160  23163  372   49224  23968  380
   49288  23689  377   49352  22783  370   49416  22656  370   49480  23079  374
   49544  22195  365   49608  22385  366   49672  21993  364   49736  21765  362
   49800  22619  369   49864  22868  371   49928  23393  376   49992  22927  372
   50056  23211  375   50120  23706  379   50184  23795  379   50248  23353  375
   50312  23579  378   50376  23038  372   50440  21990  363   50504  22645  370
   50568  22397  369   50632  23030  376   50696  21934  365   50760  22584  371
   50824  22390  368   50888  21672  362   50952  21853  365   51016  21534  361
   51080  21815  364   51144  21730  362   51208  22215  368   51272  21688  363
   51336  22732  372   51400  23185  376   51464  23306  376   51528  24025  383
   51593  24340  387   51657  24414  388   51721  24217  386   51785  23797  382
   51849  23766  384   51913  22248  369   51977  22495  372   52041  21811  367
   52105  22249  371   52169  22522  373   52233  22181  368   52297  22626  374
   52361  22522  374   52425  21728  368   52489  21336  365   52553  21018  362
   52617  20251  354   52681  20553  358   52745  19998  352   52809  20454  357
   52873  20693  360   52937  20588  359   53001  21137  363   53065  21287  365
   53129  21791  370   53193  21681  369   53257  21363  366   53321  21534  368
   53385  21086  365   53449  20850  362   53513  22011  373   53577  21194  364
   53641  21261  366   53705  20964  364   53769  21509  370   53833  21016  364
   53897  21921  374   53961  22305  375   54025  22728  379   54089  22896  381
   54153  23457  387   54217  22283  375   54281  23272  384   54345  23397  385
   54409  23101  384   54473  22452  377   54537  22746  381   54601  21893  373
   54665  21667  370   54729  21800  372   54793  21859  372   54857  22411  376
   54921  22956  382   54985  23303  386   55049  23234  384   55113  23881  392
   55177  23466  387   55241  24391  396   55305  24884  400   55369  25332  405
   55433  25071  402   55497  24644  398   55561  23772  392   55625  24096  394
   55689  22411  380   55753  21466  372   55817  21805  376   55881  22468  383
   55945  22107  380   56009  22700  386   56073  22908  386   56137  22533  383
   56201  22107  379   56265  22212  381   56329  21923  379   56393  21939  379
   56457  22390  383   56521  22637  386   56585  22107  382   56649  21665  375
   56713  21240  373   56777  20844  370   56841  21593  376   56905  21779  379
   56969  21661  379   57033  22725  388   57097  23376  393   57161  23714  396
   57225  23815  397   57289  22864  387   57353  23204  390   57417  23989  397
   57481  24003  395   57545  26477  419   57609  25621  412   57674  24282  400
   57738  24066  399   57802  22307  385   57866  21807  380   57930  21029  372
   57994  21189  374   58058  21610  378   58122  21595  376   58186  22918  390
   58250  22889  390   58314  23020  392   58378  23387  395   58442  22781  390
   58506  22303  385   58570  21280  376   58634  20494  370   58698  21068  375
   58762  20983  375   58826  20152  368   58890  21119  378   58954  19709  363
   59018  20415  369   59082  20941  374   59146  20464  370   59210  20176  368
   59274  20041  367   59338  20297  371   59402  20068  367   59466  21284  380
   59530  21681  383   59594  21854  384   59658  21173  377   59722  20229  368
   59786  21642  383   59850  22421  389   59914  22771  393   59978  23277  398
   60042  23261  397   60106  23235  397   60170  22936  396   60234  21632  383
   60298  21168  380   60362  20530  375   60426  20278  371   60490  20827  378
   60554  21000  378   60618  21102  378   60682  22267  390   60746  22864  394
   60810  24350  409   60874  24297  407   60938  23953  405   61002  23619  401
   61066  22820  394   61130  22537  392   61194  21748  386   61258  22162  390
   61322  21652  385   61386  21738  387   61450  21833  388   61514  21635  385
   61578  21052  378   61642  21264  382   61706  19934  370   61770  19542  368
   61834  19939  371   61898  20367  375   61962  20571  377   62026  22452  395
   62090  23792  404   62154  24377  410   62218  24898  414   62282  25453  419
   62346  25003  416   62410  24178  410   62474  23784  407   62538  22574  397
   62602  23008  401   62666  22589  396   62730  24051  411   62794  24611  415
   62858  23425  402   62922  23614  406   62986  22957  401   63050  22026  392
   63114  21646  390   63178  20508  379   63242  19977  374   63306  19760  373
   63370  19966  375   63434  19977  374   63498  19645  370   63562  20634  380
   63626  20413  377   63690  20802  379   63755  20926  381   63819  20621  381
   63883  20919  384   63947  21305  389   64011  19996  375   64075  19872  374
   64139  20707  382   64203  20557  381   64267  20646  381   64331  21672  390
   64396  21630  390   64460  21413  390   64524  21404  390   64589  21214  386
   64654  21330  388   64718  20806  383   64783  19804  374   64848  20150  379
   64913  19839  375   64978  20630  383   65043  20398  380   65108  21449  390
   65173  22181  397   65238  23158  406   65303  24850  420   65368  26419  434
   65434  26312  433   65499  25620  427   65565  25437  427   65630  24563  420
   65696  24497  420   65762  24160  416   65827  25972  432   65893  27621  446
   65959  28796  455   66025  29011  453   66091  30037  465   66157  28942  457
   66223  26381  436   66290  24334  420   66356  23482  414   66422  23039  409
   66489  21647  394   66555  21357  392   66622  21032  390   66688  21051  391
   66755  21612  396   66822  21651  397   66889  21272  392   66955  22796  407
   67022  23737  415   67089  24308  420   67157  24869  424   67224  24771  424
   67291  24486  423   67358  23894  418   67426  22259  401   67493  22431  405
   67561  22960  410   67628  23311  413   67696  23375  413   67763  24270  422
   67831  25565  436   67899  25301  432   67967  24780  429   68035  24137  423
   68103  22777  411   68171  22122  403   68239  22393  406   68307  21920  404
   68376  20998  393   68444  21014  395   68513  19888  383   68581  21477  400
   68650  21082  395   68718  21555  402   68787  22051  405   68856  24218  426
   68925  24965  430   68994  26151  441   69063  27083  449   69132  26739  447
   69201  25658  439   69270  24946  433   69339  24466  428   69409  23647  420
   69478  23430  420   69548  24216  427   69617  26393  446   69687  26804  448
   69756  28982  468   69826  29022  468   69896  29373  472   69966  29005  470
   70036  26547  448   70106  25546  442   70176  22917  415   70246  23004  419
   70316  21478  404   70387  22230  413   70457  21032  398   70528  21572  406
   70598  21485  405   70669  22241  412   70739  21997  409   70810  23927  429
   70881  25420  443   70952  27271  456   71023  31322  490   71094  32194  497
   71165  32014  497   71236  30971  488   71307  29891  481   71379  27258  460
   71450  24926  437   71521  22805  419   71593  22879  422   71665  22705  420
   71736  23056  425   71808  23123  424   71880  23624  429   71952  23139  423
   72024  23187  425   72096  23156  424   72168  22264  415   72240  22536  419
   72312  21341  408   72384  21211  407   72457  20504  400   72529  20452  401
   72602  21065  406   72674  21112  410   72747  20352  401   72820  20518  403
   72893  21076  407   72966  21371  409   73039  21515  414   73112  22170  420
   73185  23864  435   73258  24481  440   73331  26362  460   73405  27093  464
   73478  27359  466   73551  26074  459   73625  25905  458   73699  23859  437
   73772  22966  429   73846  22104  420   73920  23840  438   73994  24853  447
   74068  25483  451   74142  29113  485   74216  31302  502   74290  33268  518
   74365  34168  525   74439  32456  511   74513  29995  494   74588  27556  473
   74663  25667  455   74737  23677  439   74812  22286  426   74887  22840  432
   74962  22267  426   75037  21273  416   75112  21246  417   75187  21440  420
   75262  22047  426   75337  21983  426   75413  21405  419   75488  21394  419
   75563  22890  435   75639  24156  446   75715  25085  456   75790  26418  468
   75866  27558  479   75942  28422  485   76018  27158  474   76094  27652  480
   76170  25568  462   76246  24082  448   76323  22006  427   76399  21899  428
   76475  21838  428   76552  21566  425   76628  21944  429   76705  21673  426
   76782  22039  431   76858  21285  421   76935  21994  430   77012  21920  429
   77089  21933  431   77166  21070  422   77243  22009  431   77321  22432  436
   77398  21855  431   77475  22171  436   77553  21803  432   77631  21165  422
   77708  21766  432   77786  21675  430   77864  21591  429   77941  22715  441
   78019  22735  441   78097  22554  439   78176  23374  450   78254  24325  459
   78332  25560  469   78410  27361  485   78489  29368  503   78567  33065  535
   78646  34577  548   78724  35522  555   78803  34542  548   78882  33710  544
   78961  30856  518   79040  28810  501   79119  26525  482   79198  25797  474
   79277  26039  479   79356  26689  486   79436  28761  504   79515  32022  530
   79595  37848  578   79674  44166  626   79754  48455  655   79834  52820  685
   79914  51034  671   79994  47203  646   80074  39839  594   80154  36066  568
   80234  32174  538   80314  28340  501   80394  26437  485   80475  25797  483
   80555  25068  474   80636  24683  471   80716  24558  470   80797  23315  456
   80878  23837  463   80959  23391  459   81040  24635  472   81121  24641  472
   81202  23858  464   81283  24809  473   81364  25263  477   81446  27284  498
   81527  29541  519   81609  33875  556   81690  37279  583   81772  38600  593
   81854  39643  602   81936  38321  591   82018  36001  576   82100  32751  550
   82182  28336  509   82264  26942  496   82346  26502  495   82429  24876  479
   82511  25321  483   82594  25343  484   82676  26448  496   82759  27145  501
   82842  29404  521   82924  33234  556   83007  34157  563   83090  34759  572
   83173  34145  564   83257  34209  568   83340  31000  539   83423  28241  516
   83507  26035  493   83590  24883  481   83674  24816  484   83757  23696  472
   83841  24139  477   83925  24319  477   84009  23323  469   84093  24035  479
   84177  23435  473   84261  22896  464   84346  23652  475   84430  23106  469
   84514  23744  478   84599  22777  466   84683  23464  473   84768  24066  478
   84853  24651  486   84938  24176  480   85023  28402  523   85108  31127  547
   85193  34337  575   85278  37088  599   85363  35962  587   85449  35922  590
   85534  34332  577   85620  31861  556   85705  28740  530   85791  26778  512
   85877  26118  505   85963  24303  486   86049  24918  493   86135  24541  490
   86221  24277  484   86307  25912  503   86393  27483  517   86480  29336  534
   86566  32049  558   86653  36344  598   86740  37134  602   86826  39014  621
   86913  37304  607   87000  35155  589   87087  32157  564   87174  29559  541
   87261  27662  525   87349  24785  495   87436  24709  494   87523  25412  506
   87611  23484  483   87698  23789  486   87786  24271  493   87874  23350  482
   87962  23651  487   88050  24550  497   88138  23967  489   88226  23303  484
   88314  23839  490   88403  24499  497   88491  23978  490   88579  24797  499
   88668  24940  500   88757  25298  504   88846  26992  522   88934  29553  547
   89023  34486  591   89112  38748  626   89201  45118  678   89291  47717  697
   89380  50186  713   89469  48425  701   89559  44347  674   89648  39118  631
   89738  34326  595   89828  29573  552   89918  28364  539   90008  27195  529
   90098  25926  517   90188  25842  516   90278  25323  510   90368  25195  507
   90458  25679  512   90549  27240  528   90639  29657  555   90730  33068  585
   90821  36597  617   90912  40111  645   91003  43587  674   91094  43003  671
   91185  40099  646   91276  37294  624   91367  33540  593   91459  29584  555
   91550  27965  542   91642  26565  527   91733  25902  522   91825  25844  521
   91917  24986  515   92009  24167  503   92101  25160  515   92193  25093  514
   92285  24562  506   92377  24228  505   92470  24564  509   92562  25307  517
   92655  24448  509   92747  24711  509   92840  26019  526   92933  25498  522
   93026  24916  515   93119  24663  514   93212  24797  517   93305  24724  515
   93399  26183  531   93492  27734  544   93586  30283  566   93679  34804  608
   93773  39768  653   93867  45946  705   93960  48923  728   94054  50027  733
   94148  49896  734   94243  43974  689   94337  37997  642   94431  34412  611
   94526  31426  584   94620  28339  554   94715  27130  543   94810  26452  535
   94904  26311  535   94999  27011  542   95094  26679  540   95189  26410  536
   95285  27243  545   95380  29054  566   95475  32495  596   95571  37405  638
   95666  46558  716   95762  51884  752   95858  59500  809   95954  62542  829
   96050  61090  821   96146  55498  785   96242  48564  735   96338  41418  679
   96434  35146  623   96531  31329  588   96627  29469  572   96724  27635  553
   96821  26565  545   96917  25789  536   97014  25317  531   97111  25677  533
   97209  25286  529   97306  24885  524   97403  25780  537   97500  24697  525
   97598  24532  523   97696  24886  525   97793  24928  526   97891  25339  532
   97989  26051  541   98087  24811  525   98185  24939  529   98283  25510  537
   98382  25193  533   98480  25049  530   98578  25802  542   98677  24791  528
   98776  25643  538   98874  26283  546   98973  27528  556   99072  30085  582
   99171  34100  620   99271  35606  631   99370  38263  660   99469  38248  659
   99569  39247  670   99668  37342  654   99768  34317  627   99868  31693  601
   99968  29478  581  100068  28132  567  100168  26936  556  100268  26745  554
  100368  26561  552  100468  25944  545  100569  26492  552  100669  25602  542
  100770  24643  531  100871  24800  532  100972  26063  547  101073  26794  556
  101174  26580  552  101275  26530  553  101376  27503  561  101478  30324  590
  101579  32728  612  101681  34182  630  101782  33521  622  101884  33735  623
  101986  33018  620  102088  31124  601  102190  28778  575  102292  27715  567
  102395  27438  563  102497  27001  560  102600  26889  561  102702  26442  553
  102805  27106  558  102908  26225  551  103011  26188  551  103114  25804  545
  103217  26841  560  103320  26265  553  103423  26511  557  103527  27133  563
  103630  25877  546  103734  26239  553  103838  26543  559  103941  26174  555
  104045  26502  559  104149  26800  560  104254  26288  555  104358  26851  564
  104462  26959  563  104567  28331  576  104671  27715  573  104776  28439  581
  104881  28609  580  104986  28237  578  105091  28391  575  105196  29325  586
  105301  30246  595  105406  34710  638  105512  42863  712  105617  52831  788
  105723  64688  873  105828  77328  955  105934  85253 1000  106040  88123 1022
  106146  83334  994  106252  74579  942  106359  62187  858  106465  50632  775
  106572  41444  697  106678  38017  670  106785  34430  639  106892  33318  629
  106998  32421  620  107105  32471  621  107213  31696  613  107320  30560  603
  107427  30773  603  107535  30021  597  107642  30035  599  107750  30758  608
  107858  30373  603  107965  32759  628  108073  33236  627  108181  38598  675
  108290  48632  756  108398  62890  862  108506  82989  994  108615 103019 1110
  108723 115817 1175  108832 119431 1194  108941 113402 1164  109050  96827 1074
  109159  80888  984  109268  64227  877  109377  51592  784  109487  44794  732
  109596  38039  671  109706  36483  660  109816  35522  652  109925  32779  626
  110035  31795  614  110145  31698  615  110256  31531  614  110366  30214  599
  110476  30046  598  110587  28932  588  110697  30711  612  110808  29039  589
  110919  30071  600  111030  29739  597  111141  28652  583  111252  29221  593
  111363  29668  598  111475  29650  596  111586  28404  582  111698  29005  591
  111809  29591  595  111921  28558  584  112033  27441  574  112145  28517  587
  112257  29111  594  112370  28678  588  112482  28476  585  112594  28542  584
  112707  28542  584  112820  28459  585  112933  27510  575  113045  28845  591
  113158  29560  594  113272  31908  620  113385  34467  642  113498  41331  704
  113612  51670  789  113725  61872  861  113839  74740  946  113953  83653 1001
  114067  85947 1016  114181  78207  968  114295  70206  919  114410  57670  831
  114524  47779  757  114638  40984  702  114753  36778  661  114868  34925  645
  114983  33304  631  115098  31868  620  115213  30674  608  115328  30655  607
  115443  30625  603  115559  30270  602  115674  28734  588  115790  29331  596
  115906  29507  596  116022  30195  601  116138  30285  605  116254  30009  600
  116370  29321  594  116487  28812  590  116603  28694  586  116720  28981  588
  116836  29480  595  116953  32163  619  117070  37280  672  117187  40813  702
  117305  46094  744  117422  49738  773  117539  50883  782  117657  49850  773
  117774  46807  749  117892  41018  700  118010  37899  672  118128  35203  650
  118246  33006  627  118365  31267  609  118483  30136  598  118601  29688  595
  118720  30748  607  118839  29844  598  118958  29594  594  119077  29300  589
  119196  29381  590  119315  29550  592  119434  28870  587  119554  30276  602
  119673  28064  577  119793  27707  576  119913  28728  588  120033  27950  577
  120153  27892  576  120273  27529  572  120393  29037  590  120513  27984  573
  120634  29384  593  120755  28271  579  120875  29281  596  120996  29317  589
  121117  30040  595  121238  29214  586  121360  29437  591  121481  29396  589
  121602  29429  589  121724  29735  593  121846  28998  588  121968  28758  585
  122090  29611  593  122212  28677  582  122334  28309  578  122456  28307  580
  122579  28737  586  122701  28546  581  122824  28749  585  122947  29074  587
  123070  29369  590  123193  30450  599  123316  30807  599  123439  33529  624
  123563  36536  657  123686  42988  711  123810  51007  773  123934  59385  833
  124058  64741  869  124182  68936  902  124306  66716  886  124430  61089  847
  124555  53861  798  124679  47232  744  124804  41353  692  124929  38668  673
  125054  36165  652  125179  34972  643  125304  34091  631  125429  33588  623
  125555  32845  619  125680  31345  602  125806  33200  623  125932  31526  606
  126058  30833  596  126184  32404  616  126310  31242  602  126436  30895  600
  126563  29964  592  126689  31145  602  126816  29858  587  126943  30842  598
  127070  30298  593  127197  30418  593  127324  31443  603  127451  31520  604
  127579  31702  605  127706  31881  604  127834  34301  629  127962  38308  666
  128090  44764  719  128218  58440  822  128346  76378  937  128475  96629 1054
  128603 110037 1126  128732 117193 1162  128860 117515 1163  128989 106974 1108
  129118  92170 1026  129247  77519  943  129377  64404  861  129506  55288  797
  129636  48881  749  129765  44852  716  129895  43071  701  130025  43302  704
  130155  39604  669  130285  38383  660  130415  37738  656  130546  37525  654
  130676  35496  635  130807  34263  625  130938  34231  625  131069  34463  627
  131200  34107  622  131331  33138  612  131462  33302  610  131594  34231  621
  131726  33663  617  131857  31411  594  131989  32275  605  132121  32843  610
  132253  31338  594  132386  31909  599  132518  31583  594  132650  31754  596
  132783  31776  597  132916  31682  598  133049  31139  590  133182  30193  579
  133315  30609  588  133448  30499  584  133582  31431  593  133715  31645  594
  133849  30242  578  133983  31846  596  134117  31128  587  134251  31646  595
  134385  31178  587  134520  31596  588  134654  31524  592  134789  30500  581
  134924  31448  590  135059  30005  574  135194  31038  584  135329  31197  586
  135464  30618  579  135600  32648  600  135735  31007  581  135871  31536  587
  136007  31816  589  136143  32045  591  136279  32229  593  136415  33212  605
  136552  33447  604  136688  36521  632  136825  42381  680  136962  52102  753
  137099  69130  865  137236  92940 1004  137373 118238 1135  137511 136942 1220
  137648 145892 1260  137786 143160 1247  137924 131187 1194  138061 111591 1100
  138200  93741 1007  138338  77821  917  138476  68125  858  138615  60300  804
  138753  54097  762  138892  51263  744  139031  47785  717  139170  45491  700
  139309  45460  702  139448  43213  684  139588  42819  678  139727  41427  666
  139867  38856  643  140007  38278  639  140147  38610  644  140287  36747  626
  140427  36465  623  140568  35070  612  140708  35050  610  140849  35300  613
  140990  34212  603  141131  35004  611  141272  33646  599  141413  33854  601
  141555  34318  604  141696  32667  584  141838  33256  590  141980  33654  598
  142122  33048  591  142264  32851  589  142406  33313  593  142549  33219  589
  142691  33177  591  142834  34406  602  142977  36257  619  143120  40032  648
  143263  47136  701  143406  57080  772  143550  72570  873  143693  86254  949
  143837  96267 1001  143981 102075 1034  144125  98818 1015  144269  90718  972
  144413  80289  916  144558  71775  865  144702  61386  798  144847  54709  753
  144992  52080  737  145137  49068  713  145282  46733  696  145427  44106  672
  145573  43211  667  145718  40888  649  145864  41199  653  146010  39249  636
  146156  38911  634  146302  37852  624  146448  36646  613  146595  36769  615
  146741  34885  598  146888  36162  612  147035  35634  603  147182  36344  611
  147329  35491  602  147477  35112  599  147624  34050  590  147772  33142  581
  147919  34318  589  148067  34696  594  148215  33810  585  148364  33044  580
  148512  33376  585  148661  32873  576  148809  34347  591  148958  33044  579
  149107  33028  579  149256  34432  591  149405  33893  586  149555  33971  587
  149704  33999  584  149854  33204  578  150004  33831  583  150154  34313  592
  150304  33645  585  150454  34009  586  150605  33191  580  150755  33354  578
  150906  34705  591  151057  34524  589  151208  33704  580  151359  35302  595
  151511  34230  585  151662  34277  588  151814  33667  580  151966  34610  587
  152118  35787  598  152270  33800  577  152422  34939  591  152575  34576  589
  152727  33982  582  152880  35321  592  153033  35850  599  153186  34154  584
  153339  34562  586  153492  34549  584  153646  34588  586  153800  33986  580
  153953  35059  589  154107  35830  597  154261  34976  590  154416  35250  592
  154570  35638  594  154725  34322  582  154879  35167  589  155034  34794  585
  155189  36011  596  155345  36516  600  155500  38525  616  155655  41263  638
  155811  47489  683  155967  58987  759  156123  78634  879  156279 101306  995
  156435 127553 1120  156592 149455 1215  156748 162946 1267  156905 156534 1238
  157062 148031 1209  157219 130098 1132  157376 113058 1054  157534  97608  978
  157691  85297  913  157849  76837  867  158007  71703  840  158165  66324  805
  158323  61422  775  158481  57257  751  158640  54127  730  158798  53398  725
  158957  50526  704  159116  48391  690  159275  45632  666  159435  42850  643
  159594  42807  645  159754  43424  650  159913  40998  629  160073  41338  635
  160233  40834  630  160394  41180  632  160554  40735  630  160715  39034  614
  160875  39102  615  161036  40025  626  161197  38752  614  161359  37080  599
  161520  37185  603  161681  36843  597  161843  37157  600  162005  36956  595
  162167  37826  605  162329  36518  593  162491  36170  592  162654  37246  604
  162817  36123  592  162979  36669  595  163142  35966  589  163306  36862  598
  163469  37455  603  163632  35897  588  163796  37396  602  163960  37686  604
  164124  38823  612  164288  39040  615  164452  38730  610  164617  40657  624
  164781  40888  624  164946  44174  652  165111  49570  688  165276  59427  753
  165441  82004  889  165607 117534 1061  165773 162918 1249  165938 210865 1420
  166104 250563 1552  166270 269782 1608  166437 271476 1616  166603 251337 1553
  166770 224195 1470  166936 190277 1351  167103 162791 1252  167270 142038 1170
  167438 123822 1092  167605 109606 1026  167773  97760  968  167941  88034  920
  168109  80557  878  168277  74484  843  168445  69585  815  168613  63703  782
  168782  60112  761  168951  56805  738  169120  53750  716  169289  51806  704
  169458  50146  693  169628  47127  671  169797  46795  670  169967  45999  664
  170137  43721  643  170307  44555  653  170478  43444  644  170648  41562  630
  170819  40912  624  170990  41596  633  171161  40010  618  171332  40658  626
  171503  39029  612  171675  39557  617  171846  39317  613  172018  39603  615
  172190  39924  617  172362  39515  615  172535  39463  615  172707  38223  604
  172880  37874  601  173053  37693  601  173226  37968  602  173399  38685  609
  173572  37525  598  173746  37958  602  173920  38640  609  174094  38229  605
  174268  37575  601  174442  37514  599  174617  38180  603  174791  37382  597
  174966  37574  600  175141  37941  603  175316  37774  599  175491  38244  607
  175667  36764  591  175843  37634  598  176018  37935  604  176195  38833  609
  176371  38546  607  176547  37898  603  176724  38073  604  176900  38552  607
  177077  38811  610  177254  38956  609  177432  38522  606  177609  37323  596
  177787  38489  608  177964  37710  598  178142  38442  605  178321  39032  612
  178499  37768  600  178677  37960  603  178856  39284  612  179035  38737  606
  179214  38247  604  179393  37736  601  179573  38835  610  179752  38368  604
  179932  38824  610  180112  39544  616  180292  39899  622  180472  39257  613
  180653  38959  610  180834  39168  613  181014  39270  612  181195  39754  619
  181377  38189  605  181558  39966  620  181740  39930  617  181921  39872  618
  182103  40335  622  182285  40242  622  182468  39072  614  182650  39313  615
  182833  38914  609  183016  40740  626  183199  39553  618  183382  39846  619
  183565  40033  620  183749  39973  621  183933  40420  625  184117  40537  627
  184301  42012  640  184485  41082  629  184669  42077  638  184854  42465  639
  185039  45399  662  185224  46207  667  185409  47331  673  185595  53666  720
  185780  63374  781  185966  79757  876  186152 110007 1031  186338 147089 1191
  186525 185098 1337  186711 213087 1433  186898 233129 1504  187085 234546 1509
  187272 221320 1466  187459 198171 1387  187647 172466 1295  187834 148738 1203
  188022 129397 1122  188210 115302 1059  188398 102902 1002  188587  91792  943
  188775  85119  912  188964  77874  871  189153  72860  847  189342  67285  811
  189532  61684  774  189721  59405  763  189911  56732  747  190101  53610  725
  190291  51630  710  190481  50220  702  190672  49479  699  190862  48847  694
  191053  47664  683  191244  47252  682  191435  44857  662  191627  45035  665
  191819  43485  653  192010  42007  642  192202  43132  653  192395  42819  649
  192587  42678  649  192780  43076  652  192972  41606  640  193165  41264  636
  193359  42512  651  193552  42273  648  193746  42120  646  193939  42832  654
  194133  43119  653  194327  42556  649  194522  41081  636  194716  42436  651
  194911  41775  646  195106  42474  649  195301  42491  649  195496  42730  651
  195692  42308  646  195888  42615  652  196083  42006  648  196280  41467  642
  196476  41924  645  196672  43257  658  196869  41898  648  197066  41912  648
  197263  43510  663  197460  42114  649  197658  42259  652  197855  39987  631
  198053  40945  639  198251  42031  652  198450  41986  651  198648  42710  656
  198847  43425  663  199046  42119  650  199245  42105  652  199444  43158  660
  199643  43607  666  199843  41981  652  200043  42541  658  200243  42144  651
  200443  41802  652  200644  42886  663  200844  43224  665  201045  43163  664
  201246  44154  674  201447  43508  669  201649  43761  669  201850  46075  686
  202052  46824  692  202254  50958  722  202457  58015  772  202659  70380  850
  202862  91865  970  203065 117352 1100  203268 145175 1223  203471 168424 1319
  203674 180214 1366  203878 179257 1365  204082 172375 1339  204286 157142 1280
  204490 139747 1209  204695 123516 1136  204900 110056 1071  205105  97635 1008
  205310  90311  972  205515  81247  924  205720  73977  880  205926  69793  858
  206132  63513  818  206338  60279  794  206545  58586  784  206751  56640  771
  206958  54286  758  207165  52977  747  207372  50817  733  207579  50030  727
  207787  48818  720  207995  47075  705  208203  48282  717  208411  48386  717
  208619  47536  712  208828  47145  711  209037  47176  713  209246  46017  699
  209455  46597  707  209665  43926  683  209874  44795  692  210084  44841  695
  210294  44875  697  210505  44554  694  210715  46050  708  210926  44533  693
  211137  44719  695  211348  43664  688  211559  43375  688  211771  44473  693
  211983  43353  687  212195  43517  688  212407  43870  694  212619  44112  693
  212832  43945  692  213045  44780  704  213258  44584  703  213471  44920  706
  213685  44781  701  213898  43365  691  214112  43415  692  214326  44750  705
  214541  45788  712  214755  45485  714  214970  44475  704  215185  45683  716
  215400  44336  703  215616  44236  706  215831  44741  710  216047  45236  713
  216263  45115  716  216479  46107  724  216696  45546  717  216913  44917  712
  217129  45250  718  217347  44802  712  217564  45353  718  217782  45476  718
  217999  44296  707  218217  45753  725  218436  45696  722  218654  45826  726
  218873  45023  719  219092  45485  730  219311  44988  722  219530  45956  730
  219749  44826  721  219969  45034  722  220189  45180  726  220409  44521  722
  220630  45064  726  220850  45423  728  221071  45092  728  221292  45589  735
  221514  45019  729  221735  45524  730  221957  46351  741  222179  45787  738
  222401  46799  743  222624  45650  733  222846  46328  740  223069  46863  749
  223292  45733  739  223515  46090  744  223739  47252  753  223963  46726  750
  224187  45111  739  224411  45924  741  224635  46754  753  224860  46056  746
  225085  46119  746  225310  46631  756  225535  47400  763  225761  45418  747
  225987  45857  749  226213  48365  775  226439  47341  761  226665  49068  781
  226892  47757  771  227119  48200  774  227346  48643  775  227573  48182  773
  227801  47549  769  228029  48982  784  228257  48266  779  228485  46831  764
  228713  47463  770  228942  47867  779  229171  47290  772  229400  48451  783
  229630  47913  777  229859  48711  789  230089  48032  781  230319  46864  773
  230550  47283  779  230780  47041  775  231011  47719  783  231242  48386  792
  231473  47625  784  231705  47744  787  231937  46522  777  232168  47610  788
  232401  47030  781  232633  48380  794  232866  47480  786  233099  47379  789
  233332  46286  778  233565  46931  786  233799  47512  794  234032  47826  796
  234266  47844  796  234501  47995  798  234735  48794  806  234970  49055  811
  235205  48642  807  235440  47913  800  235676  49111  817  235911  48816  813
  236147  48483  810  236383  47078  800  236620  47852  808  236856  47216  800
  237093  48508  815  237330  47715  808  237568  48330  815  237805  48774  822
  238043  48507  821  238281  47444  804  238519  49669  828  238758  49861  831
  238997  48208  818  239236  48776  825  239475  49572  834  239715  47164  809
  239954  49240  834  240194  47524  814  240434  48833  829  240675  48113  822
  240916  50227  847  241156  49555  837  241398  51460  854  241639  52056  863
  241881  51106  847  242123  49295  839  242365  52498  871  242607  53729  880
  242850  55944  897  243093  55853  895  243336  58090  919  243579  62667  953
  243823  72529 1022  244066  99683 1201  244311 146531 1460  244555 224212 1809
  244799 333790 2203  245044 459521 2596  245289 578072 2922  245535 659514 3120
  245780 695519 3212  246026 670352 3159  246272 605152 3004  246518 527930 2815
  246765 438470 2568  247012 365101 2350  247259 305638 2152  247506 253343 1959
  247753 211885 1797  248001 179632 1652  248249 158141 1556  248497 137870 1450
  248746 120333 1355  248995 108055 1288  249244  95612 1209  249493  91052 1187
  249742  81738 1119  249992  77595 1100  250242  71205 1049  250492  68059 1030
  250743  66449 1014  250994  63565  994  251245  60150  966  251496  60846  972
  251748  58670  958  251999  56433  940  252251  57363  951  252504  55267  931
  252756  54284  920  253009  56874  946  253262  55129  933  253515  54733  931
  253769  54536  934  254022  55956  953  254276  52306  915  254531  52107  916
  254785  53030  924  255040  53921  933  255295  53956  934  255550  51521  909
  255806  53391  929  256062  54199  938  256318  54298  944  256574  53613  931
  256831  54752  947  257088  53810  939  257345  54900  952  257602  53295  940
  257860  52176  926  258118  54448  948  258376  52921  933  258634  53956  946
  258893  52372  933  259152  52016  930  259411  54318  955  259670  53451  940
  259930  53959  950  260190  53242  944  260450  53817  953  260711  53005  943
  260971  53291  949  261232  52450  941  261494  55159  971  261755  53309  948
  262017  54309  965  262279  54367  967  262541  53902  961  262804  54831  970
  263067  54918  970  263330  54130  967  263593  54068  966  263857  53871  965
  264120  52603  958  264385  52608  958  264649  53726  967  264914  52803  955
  265179  53601  965  265444  56220  995  265709  54848  983  265975  55313  987
  266241  52899  964  266507  52927  966  266774  55491  991  267040  54486  983
  267307  56175 1009  267575  54516  988  267842  54218  984  268110  54031  981
  268378  54907  993  268647  54032  984  268915  52634  975  269184  55180 1003
  269454  56742 1012  269723  54888  997  269993  53102  984  270263  52703  976
  270533  54164  993  270804  55102 1006  271074  53915  992  271345  54637 1006
  271617  53622  996  271888  54732 1007  272160  54272 1003  272432  53460  992
  272705  55733 1019  272978  56311 1028  273251  55226 1015  273524  55160 1012
  273797  56654 1030  274071  56235 1031  274345  56203 1032  274620  57058 1042
  274894  55151 1025  275169  56732 1042  275444  56546 1037  275720  55792 1037
  275996  56024 1041  276272  57167 1049  276548  58029 1066  276824  56216 1049
  277101  58765 1069  277378  56785 1052  277656  56115 1049  277933  57929 1065
  278211  57161 1055  278490  55792 1046  278768  54377 1032  279047  58914 1084
  279326  59302 1084  279605  57921 1073  279885  57973 1074  280165  59112 1088
  280445  56982 1063  280725  58128 1083  281006  57331 1074  281287  57679 1073
  281569  58653 1089  281850  58505 1095  282132  57881 1092  282414  57167 1084
  282697  59594 1111  282979  59292 1106  283262  60293 1118  283546  61907 1135
  283829  64236 1156  284113  64214 1152  284397  63330 1149  284682  67924 1194
  284966  69473 1211  285251  72875 1232  285537  84318 1336  285822 104410 1488
  286108 142747 1730  286394 220884 2157  286680 365950 2791  286967 576163 3513
  287254 831010 4230  2875411077593 4830  2878291268345 5249  2881171352315 5432
  2884051315765 5369  2886931194129 5124  2889821017129 4738  289271 831806 4295
  289560 666683 3856  289850 532390 3453  290140 421431 3072  290430 346891 2801
  290720 283524 2528  291011 236025 2312  291302 194212 2098  291593 167812 1957
  291885 149613 1858  292177 129438 1729  292469 115884 1635  292762 106695 1566
  293054  97678 1497  293347  95491 1487  293641  87831 1427  293934  82042 1389
  294228  78899 1362  294523  73838 1317  294817  71413 1297  295112  72286 1301
  295407  68678 1266  295703  69124 1282  295998  69334 1282  296294  67649 1272
  296591  64781 1246  296887  66399 1263  297184  66449 1263  297481  64968 1248
  297779  65729 1264  298077  64320 1252  298375  63633 1246  298673  65543 1266
  298972  64982 1261  299271  61976 1229  299570  62708 1242  299870  63722 1251
  300170  64373 1266  300470  65890 1276  300770  65170 1274  301071  64106 1268
  301372  62955 1259  301673  63479 1268  301975  63534 1271  302277  64779 1286
  302579  61755 1255  302882  62708 1267  303185  63788 1273  303488  62227 1259
  303792  62576 1270  304095  60911 1254  304400  59673 1245  304704  59878 1245
  305009  61718 1265  305314  62983 1291  305619  65350 1312  305925  63272 1291
  306231  64668 1314  306537  62185 1292  306843  61042 1277  307150  62665 1300
  307457  61189 1280  307765  62232 1296  308073  62949 1303  308381  64091 1320
  308689  61619 1283  308998  63414 1318  309307  62636 1309  309616  63812 1324
  309926  63532 1326  310236  61605 1303  310546  62336 1321  310857  60908 1302
  311167  61702 1318  311479  62276 1325  311790  64040 1341  312102  62815 1328
  312414  63250 1337  312726  63349 1344  313039  61902 1328  313352  62458 1326
  313666  62213 1333  313979  62379 1329  314293  64187 1361  314608  60980 1322
  314922  63611 1359  315237  64434 1371  315552  64520 1370  315868  65207 1376
  316184  63808 1367  316500  66087 1403  316817  63934 1376  317133  67100 1422
  317451  64540 1396  317768  62996 1366  318086  64898 1404  318404  65036 1390
  318722  65700 1399  319041  68640 1433  319360  71481 1472  319679  71435 1478
  319999  71417 1487  320319  75197 1527  320639  76358 1539  320960  78618 1564
  321281  78843 1569  321602  76846 1560  321924  76804 1556  322246  76139 1541
  322568  72333 1499  322891  72528 1514  323214  71514 1507  323537  69513 1478
  323861  70783 1505  324184  69696 1493  324509  68604 1493  324833  68167 1484
  325158  65709 1456  325483  65866 1467  325809  66111 1475  326134  69543 1519
  326461  65169 1454  326787  65749 1479  327114  67251 1502  327441  62620 1440
  327768  65744 1481  328096  65944 1480  328424  64274 1479  328753  64236 1475
  329082  64415 1473  329411  67880 1524  329740  64779 1486  330070  62728 1471
  330400  65183 1499  330730  66306 1512  331061  69030 1554  331392  62963 1474
  331724  67131 1532  332055  65247 1503  332387  67731 1551  332720  66958 1538
  333053  66945 1543  333386  65144 1518  333719  67081 1541  334053  64673 1515
  334387  66168 1541  334721  67342 1560  335056  66890 1566  335391  64909 1534
  335726  70529 1607  336062  67248 1567  336398  64725 1547  336735  67003 1577
  337071  62035 1498  337408  64518 1540  337746  69909 1622  338084  68125 1595
  338422  66776 1580  338760  66769 1590  339099  66561 1582  339438  68630 1632
  339778  65424 1576  340117  67793 1617  340457  69920 1643  340798  66678 1606
  341139  68743 1638  341480  66562 1609  341821  65009 1592  342163  68977 1660
  342505  65269 1599  342848  68067 1637  343191  70088 1675  343534  66937 1626
  343878  67445 1640  344221  66954 1642  344566  66729 1642  344910  66439 1639
  345255  67951 1675  345600  62923 1601  345946  67571 1664  346292  69290 1688
  346638  69389 1701  346985  69604 1718  347332  68071 1691  347679  69032 1707
  348027  66615 1671  348375  68759 1711  348723  69464 1725  349072  68155 1720
  349421  67079 1679  349771  69836 1734  350120  70042 1758  350471  69422 1739
  350821  70418 1757  351172  69125 1739  351523  69609 1746  351875  69290 1754
  352227  69604 1774  352579  66359 1731  352931  67835 1738  353284  69874 1767
  353638  69633 1773  353991  71238 1798  354345  66858 1739  354700  72265 1828
  355054  69680 1790  355409  68437 1768  355765  73591 1858  356121  68188 1774
  356477  70107 1812  356833  72949 1859  357190  69344 1811  357547  72342 1855
  357905  70619 1840  358263  69720 1837  358621  67265 1798  358980  67335 1795
  359339  73579 1911  359698  71373 1864  360058  66317 1810  360418  68623 1844
  360778  71036 1874  361139  75715 1938  361500  71842 1906  361862  71785 1905
  362224  71509 1906  362586  73078 1931  362948  70520 1898  363311  69528 1864
  363675  71351 1905  364038  73138 1938  364403  70514 1913  364767  69367 1898
  365132  69903 1906  365497  70312 1914  365862  75219 2013  366228  72574 1963
  366595  72465 1967  366961  75661 2008  367328  73331 1985  367695  71042 1948
  368063  70065 1950  368431  69067 1934  368800  73251 1995  369169  72246 1992
  369538  73635 2016  369907  75458 2046  370277  71596 2007  370648  73048 2043
  371018  71688 2008  371389  75980 2084  371761  71111 1993  372132  72684 2029
  372505  75218 2069  372877  74001 2063  373250  74924 2082  373623  73554 2080
  373997  74228 2076  374371  73542 2081  374745  73783 2085  375120  74220 2087
  375495  70193 2048  375871  73494 2077  376247  80616 2173  376623  75540 2132
  376999  72424 2089  377376  74576 2128  377754  74825 2130  378132  76293 2172
  378510  72782 2134  378888  73314 2136  379267  78484 2209  379647  75245 2175
  380026  76188 2185  380406  73910 2164  380787  74821 2204  381167  75961 2226
  381549  76088 2212  381930  76801 2202  382312  75943 2220  382694  77497 2238
  383077  72733 2171  383460  74826 2212  383844  74984 2229  384228  76520 2268
  384612  73529 2205  384996  74260 2238  385382  75965 2275  385767  76911 2274
  386153  74257 2256  386539  74609 2251  386925  78666 2319  387312  71492 2202
  387700  78891 2335  388087  75754 2285  388476  76608 2320  388864  78144 2344
  389253  80243 2382  389642  81411 2402  390032  81147 2419  390422  84038 2458
  390812  79481 2377  391203  80296 2413  391594  83904 2481  391986  80629 2454
  392378  78974 2412  392770  77913 2413  393163  77048 2371  393556  76586 2394
  393950  77439 2417  394344  79858 2450  394738  78530 2440  395133  77940 2441
  395528  80417 2475  395924  74298 2385  396320  76278 2436  396716  77849 2466
  397113  73246 2366  397510  82993 2547  397907  83206 2561  398305  80470 2490
  398704  78359 2475  399102  80794 2543  399501  79720 2507  399901  77628 2507
  400301  76891 2489  400701  76049 2468  401102  78893 2529  401503  79634 2540
  401905  83937 2633  402306  79173 2528  402709  82250 2611  403112  87035 2688
  403515  81759 2608  403918  75487 2482  404322  74270 2474  404726  83294 2686
  405131  81002 2634  405536  78190 2606  405942  79932 2637  406348  79671 2607
  406754  81402 2652  407161  83502 2684  407568  83433 2697  407976  82669 2666
  408384  79685 2631  408792  82563 2683  409201  83439 2692  409610  80380 2659
  410020  82141 2720  410430  79198 2678  410840  78645 2627  411251  82109 2716
  411662  79899 2704  412074  79912 2684  412486  82238 2770  412899  81242 2761
  413312  84496 2809  413725  82941 2774  414139  84600 2834  414553  79746 2707
  414967  78410 2692  415382  85410 2867  415798  84080 2815  416214  84881 2845
  416630  82654 2795  417046  81890 2773  417464  86619 2906  417881  79446 2756
  418299  78274 2740  418717  84207 2895  419136  84559 2898  419555  80832 2784
  419975  87472 2937  420395  81681 2861  420815  78978 2802  421236  77990 2791
  421657  82278 2899  422079  83165 2903  422501  85391 2960  422924  80321 2851
  423346  85106 2938  423770  84486 2977  424194  84427 2934  424618  85217 2961
  425042  77784 2835  425468  82876 2977  425893  83218 2914  426319  86672 2994
  426745  86973 3052  427172  85037 3021  427599  85497 3039  428027  90048 3123
  428455  80605 2941  428883  79883 2924  429312  87508 3069  429742  86984 3064
  430171  86366 3061  430602  85717 3037  431032  85656 3092  431463  82955 3007
  431895  93106 3266  432327  88734 3176  432759  81996 3012  433192  84717 3070
  433625  85320 3106  434059  84159 3079  434493  86628 3135  434927  82951 3033
  435362  86775 3117  435798  91044 3235  436233  85080 3122  436670  87228 3148
  437106  85085 3122  437543  89197 3233  437981  89977 3251  438419  89040 3225
  438858  89810 3258  439296  94181 3341  439736  84059 3152  440175  85462 3177
  440616  87101 3212  441056  86018 3221  441497  91703 3340  441939  92103 3348
  442381  90754 3355  442823  91886 3371  443266  85137 3209  443709  86010 3229
  444153  87704 3283  444597  90939 3378  445042  86821 3277  445487  90946 3363
  445932  88278 3330  446378  89679 3378  446825  88424 3329  447272  89251 3375
  447719  89511 3394  448167  91090 3458  448615  93434 3469  449064  90635 3409
  449513  91562 3472  449962  90488 3422  450412  96415 3553  450863  94773 3536
  451313  86929 3366  451765  89863 3427  452217  94236 3560  452669  92846 3488
  453121  93898 3587  453575  94185 3620  454028  90130 3488  454482  89836 3501
  454937  92878 3589  455392  95850 3622  455847  92803 3533  456303 100277 3679
  456759  98918 3661  457216  91490 3570  457673  97332 3694  458131  97159 3689
  458589  97417 3709  459048  96663 3653  459507  98098 3737  459966  98712 3751
  460426 101604 3794  460887  92864 3609  461348 102776 3833  461809 103915 3818
  462271 104394 3864  462733 104802 3866  463196 102447 3851  463659 103839 3900
  464123 110966 4028  464587 113038 4094  465052 116820 4180  465517 129585 4388
  465982 149226 4721  466448 189628 5311  466915 297212 6663  467382 501452 8722
  467849 81999811101  468317145644714940  468785213095018083  469254291619321207
  469723342021723001  470193359809723647  470663343847123180  471134299750121679
  471605242788919599  472077182782717080  472549130377514492  473021 94104912360
  473495 65898410317  473968 513989 9229  474442 383898 7944  474916 307755 7098
  475391 255218 6505  475867 209959 5919  476343 181424 5443  476819 166829 5260
  477296 157498 5081  477773 148141 4955  478251 131872 4733  478729 128221 4656
  479208 123303 4538  479687 119581 4498  480167 116736 4432  480647 121094 4615
  481128 114158 4430  481609 104873 4248  482091 106887 4251  482573 105564 4226
  483055  99509 4166  483538 102291 4190  484022 103882 4235  484506  96238 4081
  484991  93360 4050  485476 100332 4171  485961 108770 4414  486447 108828 4409
  486934 112135 4537  487421 101768 4267  487908 100351 4239  488396 103795 4353
  488884 104506 4378  489373 103382 4374  489863 101440 4335  490353 104736 4397
  490843 107196 4493  491334  99603 4282  491825  97620 4291  492317 101928 4456
  492809  93720 4198  493302  95621 4255  493795 109137 4587  494289  97467 4300
  494784  99357 4357  495278 101841 4358  495774 107880 4638  496269  97998 4313
  496766  99515 4426  497263 101637 4474  497760 102055 4491  498258 104458 4525
  498756 101047 4521  499255 110182 4749  499754  94239 4303  500254  97951 4414
  500754 106818 4639  501255 101154 4511  501756 101983 4525  502258 104158 4707
  502760  98945 4543  503263 105402 4657  503766 105581 4654  504270 103736 4614
  504774 105226 4685  505279  94640 4388  505784 103237 4692  506290 114661 4992
  506796 102603 4630  507303  99718 4592  507811  98951 4635  508318 104258 4754
  508827 112639 5015  509336 105896 4845  509845  93577 4550  510355  97590 4613
  510865 111087 5026  511376  97713 4627  511888  96575 4600  512399 109537 4966
  512912 106747 4851  513425 104976 4819  513938  98303 4665  514452 110159 5018
  514967 115018 5129  515482 105011 4854  515997 103969 4906  516513 107927 5000
  517030  99287 4768  517547 104687 4974  518064 101875 4867  518582 108179 5071
  519101 103108 4988  519620 104567 4969  520140 110296 5130  520660 105484 5060
  521181 117258 5418  521702 103831 5064  522224 103694 5027  522746 100171 4905
  523269 105021 5062  523792 100922 4979  524316 107425 5230  524840 105293 5163
  525365 105020 5060  525890 105091 5136  526416 107621 5236  526943 106772 5106
  527470 107840 5295  527997 100178 5003  528525 119337 5592  529054 105609 5168
  529583  97862 5067  530112 100556 5122  530643 101623 5130  531173  98441 5076
  531704 113708 5516  532236 104421 5173  532768 106740 5285  533301 114777 5545
  533835 100926 5197  534368 113657 5602  534903 106407 5380  535438 118464 5757
  535973 114012 5638  536509 110265 5499  537046  97808 5121  537583  99482 5196
  538120 105481 5415  538659 104610 5461  539197 102643 5484  539737  99191 5199
  540276 110347 5603  540817 104710 5523  541357 110746 5641  541899 103013 5399
  542441 111716 5810  542983 103502 5574  543526 103889 5502  544070 106730 5682
  544614 100955 5499  545158 113644 5823  545704 117858 5882  546249 114024 5845
  546796 114122 6041  547342 110790 5728  547890 110717 5804  548438 117391 6007
  548986 110727 5874  549535 112046 5996  550085 109751 5889  550635 109918 5822
  551186 113265 6062  551737 117645 6072  552289 119978 6134  552841 108596 5836
  553394 116235 6151  553947 113663 6103  554501 109791 5975  555056 106095 5823
  555611 105488 5777  556166 112486 6094  556723 104184 5912  557279 114642 6292
  557837 111754 6184  558395 107687 5948  558953 108931 6038  559512 102982 5871
  560072 112856 6154  560632 109359 6012  561192 117118 6293  561754 103089 5831
  562315 100493 5926  562878  98579 5893  563441 116300 6373  564004 109545 6165
  564568 108128 6273  565133 105821 6254  565698 110538 6310  566264 108455 6143
  566830 121723 6667  567397 103632 6229  567964 105605 6004  568532 110610 6411
  569101 111213 6494  569670 113136 6429  570240 115614 6474  570810 118034 6722
  571381 126218 6898  571952 113915 6743  572524 110098 6613  573097 111541 6642
  573670 103885 6312  574243 110191 6678  574818 112392 6778  575393 112600 6705
  575968 119942 6837  576544 121692 6998  577121 116933 7008  577698 113564 6727
  578275 129053 7261  578854 116724 6912  579433 110128 6634  580012 120079 7109
  580592 106999 6609  581173 113200 6805  581754 120313 7138  582336 120142 7100
  582918 119837 7029  583501 118097 7205  584084 110970 6766  584669 134794 7771
  585253 115744 7099  585839 126472 7501  586424 127364 7562  587011 123386 7281
  587598 134877 7796  588186 116307 7182  588774 119396 7239  589363 132360 7783
  589952 116899 7330  590542 115153 7348  591133 127679 7680  591724 123273 7441
  592315 109935 7187  592908 127719 7904  593501 120601 7469  594094 111798 7282
  594688 134456 8078  595283 140047 8151  595878 140560 8552  596474 114323 7466
  597071 115220 7451  597668 118301 7764  598266 111630 7351  598864 113546 7678
  599463 123219 8159  600062 118103 7795  600662 131130 8216  601263 138447 8759
  601864 123224 8188  602466 112080 7771  603069 113492 7801  603672 123214 8133
  604276 119724 8426  604880 121092 8293  605485 108961 7616  606090 114054 8140
  606696 131566 9007  607303 112051 8130  607910 120136 8348  608518 120544 8490
  609127 118289 8448  609736 111659 8244  610346 120502 8585  610956 102838 8000
  611567 123532 8900  612179 129771 9311  612791 124965 9081  613404 113566 8617
  614017 125633 9060  614631 124168 9248  615246 130107 9817  615861 128460 9528
  616477 134841 9874  617094 121904 9456  617711 125238 9561  618328 121257 9339
  618947 13525110158  619566 129600 9889  620185 107405 8730  620806 12761810071
  621427 120956 9809  622048 121346 9979  622670 20702116296  623605 112448 7193
