 5.000    4269.000
 5.014    4157.000
 5.029    4267.000
 5.043    4164.000
 5.058    4217.000
 5.072    4212.000
 5.087    4191.000
 5.101    4201.000
 5.116    4012.000
 5.130    4122.000
 5.145    4155.000
 5.159    4046.000
 5.174    4094.000
 5.188    4137.000
 5.203    4166.000
 5.217    3924.000
 5.232    4073.000
 5.246    4023.000
 5.261    3918.000
 5.275    3897.000
 5.290    3881.000
 5.304    4024.000
 5.319    4004.000
 5.333    3937.000
 5.348    3918.000
 5.362    3883.000
 5.377    3943.000
 5.391    3945.000
 5.406    3937.000
 5.420    3761.000
 5.435    3834.000
 5.449    3820.000
 5.464    3862.000
 5.478    3885.000
 5.493    3923.000
 5.507    3823.000
 5.522    3777.000
 5.536    3795.000
 5.551    3805.000
 5.565    3713.000
 5.580    3681.000
 5.594    3733.000
 5.609    3750.000
 5.623    3595.000
 5.638    3692.000
 5.652    3685.000
 5.666    3639.000
 5.681    3622.000
 5.695    3583.000
 5.710    3606.000
 5.724    3475.000
 5.739    3553.000
 5.753    3723.000
 5.768    3543.000
 5.782    3615.000
 5.797    3501.000
 5.811    3564.000
 5.826    3523.000
 5.840    3510.000
 5.855    3453.000
 5.869    3553.000
 5.884    3656.000
 5.898    3539.000
 5.913    3447.000
 5.927    3493.000
 5.942    3478.000
 5.956    3326.000
 5.971    3565.000
 5.985    3488.000
 6.000    3377.000
 6.014    3353.000
 6.029    3448.000
 6.043    3352.000
 6.058    3433.000
 6.072    3348.000
 6.087    3354.000
 6.101    3417.000
 6.116    3368.000
 6.130    3381.000
 6.145    3318.000
 6.159    3236.000
 6.174    3275.000
 6.188    3352.000
 6.203    3277.000
 6.217    3291.000
 6.232    3282.000
 6.246    3230.000
 6.261    3283.000
 6.275    3214.000
 6.290    3229.000
 6.304    3248.000
 6.318    3191.000
 6.333    3172.000
 6.347    3238.000
 6.362    3248.000
 6.376    3120.000
 6.391    3239.000
 6.405    3144.000
 6.420    3215.000
 6.434    3127.000
 6.449    3203.000
 6.463    3271.000
 6.478    3142.000
 6.492    3151.000
 6.507    3222.000
 6.521    3152.000
 6.536    3155.000
 6.550    3131.000
 6.565    3048.000
 6.579    3104.000
 6.594    3100.000
 6.608    3045.000
 6.623    3103.000
 6.637    3044.000
 6.652    3114.000
 6.666    3103.000
 6.681    2984.000
 6.695    3166.000
 6.710    3102.000
 6.724    3019.000
 6.739    3089.000
 6.753    2950.000
 6.768    3042.000
 6.782    3043.000
 6.797    2976.000
 6.811    2978.000
 6.826    2993.000
 6.840    2990.000
 6.855    2843.000
 6.869    2891.000
 6.884    2979.000
 6.898    2936.000
 6.913    2859.000
 6.927    2864.000
 6.942    2980.000
 6.956    2865.000
 6.971    2841.000
 6.985    3012.000
 6.999    2875.000
 7.014    2985.000
 7.028    2947.000
 7.043    2791.000
 7.057    2873.000
 7.072    2916.000
 7.086    2805.000
 7.101    2818.000
 7.115    2734.000
 7.130    2764.000
 7.144    2821.000
 7.159    2814.000
 7.173    2866.000
 7.188    2857.000
 7.202    2766.000
 7.217    2882.000
 7.231    2810.000
 7.246    2771.000
 7.260    2813.000
 7.275    2782.000
 7.289    2745.000
 7.304    2685.000
 7.318    2732.000
 7.333    2835.000
 7.347    2743.000
 7.362    2717.000
 7.376    2817.000
 7.391    2699.000
 7.405    2636.000
 7.420    2660.000
 7.434    2677.000
 7.449    2691.000
 7.463    2648.000
 7.478    2681.000
 7.492    2626.000
 7.507    2737.000
 7.521    2652.000
 7.536    2585.000
 7.550    2687.000
 7.565    2636.000
 7.579    2659.000
 7.594    2629.000
 7.608    2619.000
 7.623    2517.000
 7.637    2602.000
 7.651    2540.000
 7.666    2667.000
 7.680    2664.000
 7.695    2649.000
 7.709    2590.000
 7.724    2560.000
 7.738    2494.000
 7.753    2635.000
 7.767    2531.000
 7.782    2535.000
 7.796    2513.000
 7.811    2577.000
 7.825    2498.000
 7.840    2476.000
 7.854    2518.000
 7.869    2454.000
 7.883    2578.000
 7.898    2537.000
 7.912    2482.000
 7.927    2518.000
 7.941    2501.000
 7.956    2429.000
 7.970    2434.000
 7.985    2453.000
 7.999    2398.000
 8.014    2402.000
 8.028    2447.000
 8.043    2492.000
 8.057    2444.000
 8.072    2434.000
 8.086    2407.000
 8.101    2449.000
 8.115    2335.000
 8.130    2383.000
 8.144    2404.000
 8.159    2380.000
 8.173    2413.000
 8.188    2366.000
 8.202    2403.000
 8.217    2373.000
 8.231    2329.000
 8.246    2417.000
 8.260    2367.000
 8.275    2339.000
 8.289    2384.000
 8.303    2365.000
 8.318    2417.000
 8.332    2299.000
 8.347    2293.000
 8.361    2351.000
 8.376    2298.000
 8.390    2400.000
 8.405    2286.000
 8.419    2369.000
 8.434    2340.000
 8.448    2275.000
 8.463    2280.000
 8.477    2229.000
 8.492    2215.000
 8.506    2256.000
 8.521    2293.000
 8.535    2293.000
 8.550    2226.000
 8.564    2271.000
 8.579    2199.000
 8.593    2227.000
 8.608    2216.000
 8.622    2237.000
 8.637    2266.000
 8.651    2253.000
 8.666    2239.000
 8.680    2142.000
 8.695    2210.000
 8.709    2235.000
 8.724    2246.000
 8.738    2234.000
 8.753    2219.000
 8.767    2139.000
 8.782    2201.000
 8.796    2280.000
 8.811    2130.000
 8.825    2228.000
 8.840    2081.000
 8.854    2174.000
 8.869    2099.000
 8.883    2161.000
 8.898    2136.000
 8.912    2038.000
 8.927    2148.000
 8.941    2134.000
 8.955    2114.000
 8.970    2034.000
 8.984    2153.000
 8.999    2161.000
 9.013    2016.000
 9.028    2115.000
 9.042    2106.000
 9.057    2063.000
 9.071    2068.000
 9.086    2187.000
 9.100    2063.000
 9.115    2058.000
 9.129    2058.000
 9.144    2024.000
 9.158    2118.000
 9.173    2083.000
 9.187    2077.000
 9.202    2087.000
 9.216    2143.000
 9.231    2023.000
 9.245    2125.000
 9.260    2034.000
 9.274    2042.000
 9.289    2097.000
 9.303    2145.000
 9.318    2090.000
 9.332    2121.000
 9.347    2050.000
 9.361    2110.000
 9.376    2150.000
 9.390    2157.000
 9.405    2186.000
 9.419    2157.000
 9.434    2132.000
 9.448    2342.000
 9.463    2413.000
 9.477    2386.000
 9.492    2578.000
 9.506    2588.000
 9.521    2472.000
 9.535    2421.000
 9.550    2204.000
 9.564    2117.000
 9.579    2096.000
 9.593    2004.000
 9.608    1960.000
 9.622    1994.000
 9.636    1937.000
 9.651    1883.000
 9.665    1974.000
 9.680    1998.000
 9.694    1979.000
 9.709    1974.000
 9.723    1943.000
 9.738    1988.000
 9.752    1961.000
 9.767    1933.000
 9.781    2038.000
 9.796    2057.000
 9.810    1970.000
 9.825    1982.000
 9.839    2012.000
 9.854    1944.000
 9.868    1928.000
 9.883    1945.000
 9.897    1926.000
 9.912    1868.000
 9.926    1957.000
 9.941    1932.000
 9.955    1904.000
 9.970    1931.000
 9.984    1910.000
 9.999    1928.000
10.013    1879.000
10.028    1945.000
10.042    1978.000
10.057    1923.000
10.071    1942.000
10.086    1939.000
10.100    1962.000
10.115    1843.000
10.129    1915.000
10.144    1837.000
10.158    1944.000
10.173    1848.000
10.187    1861.000
10.202    1835.000
10.216    1880.000
10.231    1939.000
10.245    1763.000
10.260    1844.000
10.274    1888.000
10.288    1935.000
10.303    1929.000
10.317    1922.000
10.332    1808.000
10.346    1836.000
10.361    1838.000
10.375    1824.000
10.390    1914.000
10.404    1849.000
10.419    1880.000
10.433    1809.000
10.448    1766.000
10.462    1841.000
10.477    1839.000
10.491    1704.000
10.506    1874.000
10.520    1794.000
10.535    1948.000
10.549    1850.000
10.564    1803.000
10.578    1730.000
10.593    1901.000
10.607    1777.000
10.622    1833.000
10.636    1808.000
10.651    1819.000
10.665    1863.000
10.680    1776.000
10.694    1769.000
10.709    1728.000
10.723    1793.000
10.738    1726.000
10.752    1831.000
10.767    1750.000
10.781    1791.000
10.796    1792.000
10.810    1683.000
10.825    1771.000
10.839    1809.000
10.854    1732.000
10.868    1748.000
10.883    1760.000
10.897    1721.000
10.912    1722.000
10.926    1734.000
10.940    1670.000
10.955    1725.000
10.969    1813.000
10.984    1643.000
10.998    1795.000
11.013    1641.000
11.027    1723.000
11.042    1716.000
11.056    1795.000
11.071    1738.000
11.085    1764.000
11.100    1729.000
11.114    1802.000
11.129    1667.000
11.143    1751.000
11.158    1753.000
11.172    1680.000
11.187    1734.000
11.201    1754.000
11.216    1816.000
11.230    1746.000
11.245    1709.000
11.259    1830.000
11.274    1699.000
11.288    1671.000
11.303    1709.000
11.317    1664.000
11.332    1614.000
11.346    1711.000
11.361    1670.000
11.375    1703.000
11.390    1699.000
11.404    1717.000
11.419    1699.000
11.433    1636.000
11.448    1626.000
11.462    1662.000
11.477    1646.000
11.491    1667.000
11.506    1640.000
11.520    1707.000
11.535    1692.000
11.549    1700.000
11.564    1640.000
11.578    1718.000
11.592    1581.000
11.607    1681.000
11.621    1665.000
11.636    1646.000
11.650    1632.000
11.665    1693.000
11.679    1611.000
11.694    1662.000
11.708    1635.000
11.723    1586.000
11.737    1631.000
11.752    1669.000
11.766    1691.000
11.781    1597.000
11.795    1540.000
11.810    1642.000
11.824    1668.000
11.839    1647.000
11.853    1662.000
11.868    1627.000
11.882    1616.000
11.897    1665.000
11.911    1661.000
11.926    1668.000
11.940    1645.000
11.955    1542.000
11.969    1576.000
11.984    1665.000
11.998    1599.000
12.013    1569.000
12.027    1675.000
12.042    1620.000
12.056    1605.000
12.071    1604.000
12.085    1653.000
12.100    1635.000
12.114    1646.000
12.129    1688.000
12.143    1665.000
12.158    1610.000
12.172    1624.000
12.187    1611.000
12.201    1583.000
12.216    1624.000
12.230    1609.000
12.245    1600.000
12.259    1653.000
12.273    1594.000
12.288    1645.000
12.302    1557.000
12.317    1637.000
12.331    1564.000
12.346    1635.000
12.360    1610.000
12.375    1533.000
12.389    1565.000
12.404    1592.000
12.418    1596.000
12.433    1662.000
12.447    1587.000
12.462    1594.000
12.476    1534.000
12.491    1588.000
12.505    1599.000
12.520    1550.000
12.534    1598.000
12.549    1660.000
12.563    1615.000
12.578    1595.000
12.592    1608.000
12.607    1604.000
12.621    1592.000
12.636    1605.000
12.650    1624.000
12.665    1639.000
12.679    1693.000
12.694    1709.000
12.708    1715.000
12.723    1704.000
12.737    1756.000
12.752    1931.000
12.766    1899.000
12.781    2087.000
12.795    2109.000
12.810    2369.000
12.824    2654.000
12.839    2988.000
12.853    3215.000
12.868    3251.000
12.882    2881.000
12.897    2395.000
12.911    2044.000
12.925    1817.000
12.940    1694.000
12.954    1658.000
12.969    1641.000
12.983    1586.000
12.998    1592.000
13.012    1533.000
13.027    1492.000
13.041    1483.000
13.056    1507.000
13.070    1538.000
13.085    1527.000
13.099    1465.000
13.114    1468.000
13.128    1481.000
13.143    1510.000
13.157    1572.000
13.172    1480.000
13.186    1478.000
13.201    1488.000
13.215    1527.000
13.230    1500.000
13.244    1513.000
13.259    1496.000
13.273    1517.000
13.288    1574.000
13.302    1543.000
13.317    1499.000
13.331    1431.000
13.346    1555.000
13.360    1511.000
13.375    1545.000
13.389    1528.000
13.404    1497.000
13.418    1461.000
13.433    1567.000
13.447    1482.000
13.462    1499.000
13.476    1512.000
13.491    1496.000
13.505    1521.000
13.520    1462.000
13.534    1516.000
13.549    1483.000
13.563    1503.000
13.577    1449.000
13.592    1540.000
13.606    1435.000
13.621    1532.000
13.635    1579.000
13.650    1467.000
13.664    1512.000
13.679    1546.000
13.693    1453.000
13.708    1453.000
13.722    1491.000
13.737    1497.000
13.751    1499.000
13.766    1492.000
13.780    1526.000
13.795    1453.000
13.809    1503.000
13.824    1490.000
13.838    1565.000
13.853    1502.000
13.867    1497.000
13.882    1491.000
13.896    1525.000
13.911    1459.000
13.925    1502.000
13.940    1551.000
13.954    1607.000
13.969    1599.000
13.983    1542.000
13.998    1630.000
14.012    1629.000
14.027    1784.000
14.041    1846.000
14.056    1959.000
14.070    2077.000
14.085    2203.000
14.099    2325.000
14.114    2129.000
14.128    1980.000
14.143    1852.000
14.157    1690.000
14.172    1568.000
14.186    1528.000
14.201    1482.000
14.215    1478.000
14.229    1486.000
14.244    1454.000
14.258    1534.000
14.273    1478.000
14.287    1464.000
14.302    1451.000
14.316    1486.000
14.331    1446.000
14.345    1564.000
14.360    1460.000
14.374    1448.000
14.389    1427.000
14.403    1520.000
14.418    1503.000
14.432    1409.000
14.447    1417.000
14.461    1507.000
14.476    1502.000
14.490    1407.000
14.505    1484.000
14.519    1418.000
14.534    1417.000
14.548    1449.000
14.563    1460.000
14.577    1486.000
14.592    1488.000
14.606    1517.000
14.621    1483.000
14.635    1490.000
14.650    1502.000
14.664    1384.000
14.679    1439.000
14.693    1408.000
14.708    1412.000
14.722    1439.000
14.737    1496.000
14.751    1477.000
14.766    1450.000
14.780    1409.000
14.795    1502.000
14.809    1480.000
14.824    1472.000
14.838    1491.000
14.853    1448.000
14.867    1364.000
14.881    1402.000
14.896    1414.000
14.910    1409.000
14.925    1444.000
14.939    1448.000
14.954    1490.000
14.968    1440.000
14.983    1507.000
14.997    1383.000
15.012    1439.000
15.026    1408.000
15.041    1453.000
15.055    1504.000
15.070    1466.000
15.084    1402.000
15.099    1404.000
15.113    1392.000
15.128    1476.000
15.142    1440.000
15.157    1464.000
15.171    1456.000
15.186    1471.000
15.200    1389.000
15.215    1463.000
15.229    1439.000
15.244    1475.000
15.258    1458.000
15.273    1405.000
15.287    1419.000
15.302    1403.000
15.316    1428.000
15.331    1435.000
15.345    1462.000
15.360    1483.000
15.374    1515.000
15.389    1433.000
15.403    1507.000
15.418    1515.000
15.432    1452.000
15.447    1452.000
15.461    1445.000
15.476    1472.000
15.490    1397.000
15.505    1429.000
15.519    1472.000
15.534    1409.000
15.548    1438.000
15.562    1416.000
15.577    1446.000
15.591    1489.000
15.606    1380.000
15.620    1422.000
15.635    1424.000
15.649    1402.000
15.664    1455.000
15.678    1454.000
15.693    1471.000
15.707    1458.000
15.722    1539.000
15.736    1433.000
15.751    1395.000
15.765    1391.000
15.780    1441.000
15.794    1477.000
15.809    1465.000
15.823    1454.000
15.838    1509.000
15.852    1481.000
15.867    1389.000
15.881    1437.000
15.896    1532.000
15.910    1462.000
15.925    1487.000
15.939    1537.000
15.954    1450.000
15.968    1526.000
15.983    1453.000
15.997    1519.000
16.012    1484.000
16.026    1477.000
16.041    1495.000
16.055    1524.000
16.070    1549.000
16.084    1507.000
16.099    1445.000
16.113    1543.000
16.128    1499.000
16.142    1619.000
16.157    1664.000
16.171    1574.000
16.186    1673.000
16.200    1591.000
16.214    1731.000
16.229    1669.000
16.243    1773.000
16.258    1719.000
16.272    1856.000
16.287    1902.000
16.301    1992.000
16.316    2058.000
16.330    2202.000
16.345    2202.000
16.359    2514.000
16.374    2877.000
16.388    3177.000
16.403    3615.000
16.417    4162.000
16.432    4750.000
16.446    5873.000
16.461    7195.000
16.475    9084.000
16.490   11813.000
16.504   15514.000
16.519   20907.000
16.533   27041.000
16.548   32677.000
16.562   34948.000
16.577   31864.000
16.591   24688.000
16.606   16732.000
16.620   10593.000
16.635    6547.000
16.649    4327.000
16.664    3318.000
16.678    2667.000
16.693    2412.000
16.707    2272.000
16.722    2104.000
16.736    1998.000
16.751    1848.000
16.765    1820.000
16.780    1801.000
16.794    1789.000
16.809    1705.000
16.823    1659.000
16.838    1608.000
16.852    1665.000
16.866    1701.000
16.881    1669.000
16.895    1568.000
16.910    1630.000
16.924    1566.000
16.939    1621.000
16.953    1494.000
16.968    1558.000
16.982    1563.000
16.997    1585.000
17.011    1566.000
17.026    1576.000
17.040    1546.000
17.055    1525.000
17.069    1485.000
17.084    1516.000
17.098    1473.000
17.113    1511.000
17.127    1490.000
17.142    1514.000
17.156    1442.000
17.171    1471.000
17.185    1427.000
17.200    1548.000
17.214    1566.000
17.229    1498.000
17.243    1489.000
17.258    1492.000
17.272    1540.000
17.287    1485.000
17.301    1491.000
17.316    1517.000
17.330    1501.000
17.345    1527.000
17.359    1427.000
17.374    1494.000
17.388    1493.000
17.403    1470.000
17.417    1486.000
17.432    1531.000
17.446    1467.000
17.461    1524.000
17.475    1505.000
17.490    1502.000
17.504    1466.000
17.518    1472.000
17.533    1482.000
17.547    1484.000
17.562    1564.000
17.576    1495.000
17.591    1535.000
17.605    1490.000
17.620    1498.000
17.634    1451.000
17.649    1506.000
17.663    1507.000
17.678    1542.000
17.692    1602.000
17.707    1479.000
17.721    1525.000
17.736    1519.000
17.750    1473.000
17.765    1488.000
17.779    1531.000
17.794    1533.000
17.808    1478.000
17.823    1558.000
17.837    1456.000
17.852    1462.000
17.866    1503.000
17.881    1601.000
17.895    1494.000
17.910    1498.000
17.924    1516.000
17.939    1569.000
17.953    1524.000
17.968    1472.000
17.982    1541.000
17.997    1584.000
18.011    1526.000
18.026    1562.000
18.040    1606.000
18.055    1565.000
18.069    1544.000
18.084    1536.000
18.098    1509.000
18.113    1508.000
18.127    1551.000
18.142    1555.000
18.156    1545.000
18.171    1520.000
18.185    1565.000
18.199    1576.000
18.214    1571.000
18.228    1579.000
18.243    1658.000
18.257    1531.000
18.272    1605.000
18.286    1603.000
18.301    1548.000
18.315    1653.000
18.330    1635.000
18.344    1602.000
18.359    1678.000
18.373    1655.000
18.388    1720.000
18.402    1785.000
18.417    1686.000
18.431    1751.000
18.446    1765.000
18.460    1878.000
18.475    1865.000
18.489    2063.000
18.504    2119.000
18.518    2298.000
18.533    2392.000
18.547    2788.000
18.562    3160.000
18.576    3743.000
18.591    4350.000
18.605    5443.000
18.620    6893.000
18.634    8225.000
18.649    9349.000
18.663    9476.000
18.678    8519.000
18.692    6674.000
18.707    4923.000
18.721    3588.000
18.736    2738.000
18.750    2367.000
18.765    2201.000
18.779    2017.000
18.794    2007.000
18.808    1933.000
18.823    1927.000
18.837    1945.000
18.851    1920.000
18.866    2014.000
18.880    2069.000
18.895    2245.000
18.909    2345.000
18.924    2464.000
18.938    2714.000
18.953    3022.000
18.967    3485.000
18.982    4118.000
18.996    5125.000
19.011    6292.000
19.025    8176.000
19.040   10712.000
19.054   13840.000
19.069   16235.000
19.083   16295.000
19.098   14082.000
19.112   10312.000
19.127    6923.000
19.141    4771.000
19.156    3407.000
19.170    2645.000
19.185    2301.000
19.199    2163.000
19.214    2036.000
19.228    1863.000
19.243    1906.000
19.257    1731.000
19.272    1868.000
19.286    1799.000
19.301    1860.000
19.315    1792.000
19.330    1790.000
19.344    1628.000
19.359    1771.000
19.373    1686.000
19.388    1755.000
19.402    1689.000
19.417    1640.000
19.431    1672.000
19.446    1674.000
19.460    1668.000
19.475    1764.000
19.489    1659.000
19.503    1727.000
19.518    1783.000
19.532    1685.000
19.547    1683.000
19.561    1711.000
19.576    1662.000
19.590    1651.000
19.605    1689.000
19.619    1720.000
19.634    1752.000
19.648    1720.000
19.663    1625.000
19.677    1705.000
19.692    1647.000
19.706    1743.000
19.721    1699.000
19.735    1644.000
19.750    1704.000
19.764    1692.000
19.779    1716.000
19.793    1688.000
19.808    1641.000
19.822    1671.000
19.837    1668.000
19.851    1698.000
19.866    1720.000
19.880    1718.000
19.895    1684.000
19.909    1717.000
19.924    1712.000
19.938    1712.000
19.953    1690.000
19.967    1648.000
19.982    1756.000
19.996    1701.000
20.011    1636.000
20.025    1759.000
20.040    1717.000
20.054    1733.000
20.069    1783.000
20.083    1815.000
20.098    1727.000
20.112    1780.000
20.127    1744.000
20.141    1659.000
20.155    1681.000
20.170    1683.000
20.184    1686.000
20.199    1737.000
20.213    1708.000
20.228    1774.000
20.242    1794.000
20.257    1775.000
20.271    1809.000
20.286    1772.000
20.300    1758.000
20.315    1798.000
20.329    1824.000
20.344    1799.000
20.358    1789.000
20.373    1782.000
20.387    1814.000
20.402    1821.000
20.416    1817.000
20.431    1844.000
20.445    1802.000
20.460    1904.000
20.474    1916.000
20.489    1855.000
20.503    1848.000
20.518    1852.000
20.532    1905.000
20.547    1972.000
20.561    1882.000
20.576    1948.000
20.590    2028.000
20.605    2119.000
20.619    2185.000
20.634    2259.000
20.648    2291.000
20.663    2511.000
20.677    2701.000
20.692    3059.000
20.706    3386.000
20.721    3790.000
20.735    4531.000
20.750    5348.000
20.764    6660.000
20.779    8283.000
20.793   10743.000
20.807   14415.000
20.822   18707.000
20.836   23719.000
20.851   27963.000
20.865   29425.000
20.880   27623.000
20.894   22907.000
20.909   17299.000
20.923   12159.000
20.938    8514.000
20.952    6104.000
20.967    4684.000
20.981    4071.000
20.996    3423.000
21.010    3109.000
21.025    2837.000
21.039    2656.000
21.054    2630.000
21.068    2574.000
21.083    2417.000
21.097    2364.000
21.112    2267.000
21.126    2285.000
21.141    2284.000
21.155    2278.000
21.170    2272.000
21.184    2280.000
21.199    2341.000
21.213    2357.000
21.228    2480.000
21.242    2656.000
21.257    2899.000
21.271    3107.000
21.286    3531.000
21.300    4119.000
21.315    4886.000
21.329    5802.000
21.344    7356.000
21.358    8971.000
21.373   11269.000
21.387   12857.000
21.402   13566.000
21.416   12890.000
21.431   10959.000
21.445    8417.000
21.460    6294.000
21.474    4762.000
21.488    3618.000
21.503    3053.000
21.517    2672.000
21.532    2329.000
21.546    2357.000
21.561    2165.000
21.575    2149.000
21.590    2052.000
21.604    2070.000
21.619    2063.000
21.633    2085.000
21.648    2097.000
21.662    2104.000
21.677    2095.000
21.691    2258.000
21.706    2351.000
21.720    2494.000
21.735    2700.000
21.749    2825.000
21.764    2938.000
21.778    2906.000
21.793    2775.000
21.807    2541.000
21.822    2413.000
21.836    2183.000
21.851    2052.000
21.865    1961.000
21.880    1899.000
21.894    1912.000
21.909    1846.000
21.923    1816.000
21.938    1821.000
21.952    1885.000
21.967    1764.000
21.981    1780.000
21.996    1718.000
22.010    1723.000
22.025    1775.000
22.039    1686.000
22.054    1780.000
22.068    1678.000
22.083    1732.000
22.097    1799.000
22.112    1846.000
22.126    1678.000
22.140    1750.000
22.155    1650.000
22.169    1686.000
22.184    1710.000
22.198    1688.000
22.213    1739.000
22.227    1649.000
22.242    1675.000
22.256    1790.000
22.271    1679.000
22.285    1689.000
22.300    1763.000
22.314    1657.000
22.329    1660.000
22.343    1737.000
22.358    1655.000
22.372    1691.000
22.387    1713.000
22.401    1670.000
22.416    1607.000
22.430    1756.000
22.445    1712.000
22.459    1642.000
22.474    1796.000
22.488    1745.000
22.503    1688.000
22.517    1681.000
22.532    1664.000
22.546    1602.000
22.561    1675.000
22.575    1656.000
22.590    1754.000
22.604    1716.000
22.619    1629.000
22.633    1696.000
22.648    1665.000
22.662    1721.000
22.677    1660.000
22.691    1696.000
22.706    1685.000
22.720    1769.000
22.735    1732.000
22.749    1739.000
22.764    1676.000
22.778    1749.000
22.792    1705.000
22.807    1712.000
22.821    1901.000
22.836    1894.000
22.850    1873.000
22.865    2030.000
22.879    2153.000
22.894    2275.000
22.908    2434.000
22.923    2842.000
22.937    2991.000
22.952    3466.000
22.966    3597.000
22.981    3642.000
22.995    3333.000
23.010    3047.000
23.024    2672.000
23.039    2455.000
23.053    2171.000
23.068    1921.000
23.082    1879.000
23.097    1833.000
23.111    1789.000
23.126    1789.000
23.140    1714.000
23.155    1754.000
23.169    1658.000
23.184    1773.000
23.198    1676.000
23.213    1629.000
23.227    1630.000
23.242    1715.000
23.256    1606.000
23.271    1666.000
23.285    1610.000
23.300    1701.000
23.314    1566.000
23.329    1585.000
23.343    1591.000
23.358    1642.000
23.372    1586.000
23.387    1542.000
23.401    1594.000
23.416    1607.000
23.430    1559.000
23.444    1633.000
23.459    1680.000
23.473    1666.000
23.488    1494.000
23.502    1594.000
23.517    1606.000
23.531    1512.000
23.546    1497.000
23.560    1593.000
23.575    1545.000
23.589    1542.000
23.604    1600.000
23.618    1549.000
23.633    1517.000
23.647    1603.000
23.662    1624.000
23.676    1576.000
23.691    1541.000
23.705    1507.000
23.720    1508.000
23.734    1623.000
23.749    1578.000
23.763    1542.000
23.778    1586.000
23.792    1591.000
23.807    1523.000
23.821    1513.000
23.836    1496.000
23.850    1575.000
23.865    1547.000
23.879    1543.000
23.894    1541.000
23.908    1545.000
23.923    1551.000
23.937    1484.000
23.952    1487.000
23.966    1513.000
23.981    1571.000
23.995    1629.000
24.010    1546.000
24.024    1536.000
24.039    1681.000
24.053    1596.000
24.068    1573.000
24.082    1616.000
24.097    1566.000
24.111    1546.000
24.125    1500.000
24.140    1573.000
24.154    1480.000
24.169    1565.000
24.183    1503.000
24.198    1528.000
24.212    1548.000
24.227    1516.000
24.241    1576.000
24.256    1588.000
24.270    1620.000
24.285    1587.000
24.299    1594.000
24.314    1611.000
24.328    1621.000
24.343    1713.000
24.357    1735.000
24.372    1885.000
24.386    1924.000
24.401    1952.000
24.415    2035.000
24.430    2316.000
24.444    2579.000
24.459    2969.000
24.473    3355.000
24.488    4223.000
24.502    5239.000
24.517    6701.000
24.531    8709.000
24.546   11416.000
24.560   14121.000
24.575   16402.000
24.589   17193.000
24.604   16133.000
24.618   13596.000
24.633   10484.000
24.647    7640.000
24.662    5548.000
24.676    3996.000
24.691    3337.000
24.705    2648.000
24.720    2372.000
24.734    2122.000
24.749    1922.000
24.763    1844.000
24.777    1788.000
24.792    1786.000
24.806    1687.000
24.821    1668.000
24.835    1650.000
24.850    1628.000
24.864    1623.000
24.879    1575.000
24.893    1525.000
24.908    1492.000
24.922    1539.000
24.937    1503.000
24.951    1462.000
24.966    1530.000
24.980    1407.000
24.995    1403.000
25.009    1421.000
25.024    1362.000
25.038    1439.000
25.053    1480.000
25.067    1443.000
25.082    1420.000
25.096    1405.000
25.111    1430.000
25.125    1364.000
25.140    1344.000
25.154    1372.000
25.169    1351.000
25.183    1411.000
25.198    1415.000
25.212    1349.000
25.227    1450.000
25.241    1320.000
25.256    1365.000
25.270    1355.000
25.285    1330.000
25.299    1434.000
25.314    1330.000
25.328    1395.000
25.343    1365.000
25.357    1386.000
25.372    1285.000
25.386    1298.000
25.401    1299.000
25.415    1346.000
25.429    1300.000
25.444    1366.000
25.458    1311.000
25.473    1353.000
25.487    1302.000
25.502    1347.000
25.516    1369.000
25.531    1372.000
25.545    1382.000
25.560    1351.000
25.574    1356.000
25.589    1342.000
25.603    1313.000
25.618    1277.000
25.632    1378.000
25.647    1360.000
25.661    1353.000
25.676    1356.000
25.690    1432.000
25.705    1433.000
25.719    1327.000
25.734    1405.000
25.748    1514.000
25.763    1558.000
25.777    1615.000
25.792    1804.000
25.806    1953.000
25.821    2154.000
25.835    2558.000
25.850    3078.000
25.864    3626.000
25.879    3912.000
25.893    4228.000
25.908    3991.000
25.922    3508.000
25.937    2947.000
25.951    2359.000
25.966    1999.000
25.980    1693.000
25.995    1548.000
26.009    1459.000
26.024    1401.000
26.038    1404.000
26.053    1381.000
26.067    1382.000
26.081    1437.000
26.096    1408.000
26.110    1426.000
26.125    1424.000
26.139    1473.000
26.154    1599.000
26.168    1814.000
26.183    1967.000
26.197    2056.000
26.212    2326.000
26.226    2487.000
26.241    2612.000
26.255    2515.000
26.270    2425.000
26.284    2137.000
26.299    1838.000
26.313    1660.000
26.328    1495.000
26.342    1361.000
26.357    1355.000
26.371    1311.000
26.386    1233.000
26.400    1293.000
26.415    1261.000
26.429    1308.000
26.444    1245.000
26.458    1244.000
26.473    1202.000
26.487    1170.000
26.502    1184.000
26.516    1156.000
26.531    1123.000
26.545    1182.000
26.560    1225.000
26.574    1195.000
26.589    1220.000
26.603    1189.000
26.618    1221.000
26.632    1240.000
26.647    1220.000
26.661    1232.000
26.676    1202.000
26.690    1243.000
26.705    1176.000
26.719    1164.000
26.733    1223.000
26.748    1331.000
26.762    1346.000
26.777    1308.000
26.791    1447.000
26.806    1442.000
26.820    1391.000
26.835    1389.000
26.849    1350.000
26.864    1257.000
26.878    1179.000
26.893    1190.000
26.907    1206.000
26.922    1172.000
26.936    1111.000
26.951    1157.000
26.965    1184.000
26.980    1127.000
26.994    1139.000
27.009    1138.000
27.023    1129.000
27.038    1116.000
27.052    1049.000
27.067    1158.000
27.081    1141.000
27.096    1114.000
27.110    1147.000
27.125    1078.000
27.139    1090.000
27.154    1206.000
27.168    1095.000
27.183    1131.000
27.197    1094.000
27.212    1141.000
27.226    1098.000
27.241    1126.000
27.255    1111.000
27.270    1152.000
27.284    1162.000
27.299    1097.000
27.313    1127.000
27.328    1089.000
27.342    1125.000
27.357    1088.000
27.371    1077.000
27.386    1152.000
27.400    1121.000
27.414    1147.000
27.429    1101.000
27.443    1063.000
27.458    1137.000
27.472    1054.000
27.487    1152.000
27.501    1099.000
27.516    1080.000
27.530    1032.000
27.545    1123.000
27.559    1110.000
27.574    1143.000
27.588    1059.000
27.603    1143.000
27.617    1124.000
27.632    1154.000
27.646    1138.000
27.661    1108.000
27.675    1117.000
27.690    1130.000
27.704    1168.000
27.719    1218.000
27.733    1207.000
27.748    1251.000
27.762    1275.000
27.777    1256.000
27.791    1295.000
27.806    1326.000
27.820    1459.000
27.835    1492.000
27.849    1653.000
27.864    1853.000
27.878    2111.000
27.893    2548.000
27.907    3142.000
27.922    3803.000
27.936    4583.000
27.951    5443.000
27.965    5738.000
27.980    5885.000
27.994    5230.000
28.009    4568.000
28.023    3796.000
28.038    3346.000
28.052    2848.000
28.066    2938.000
28.081    2861.000
28.095    3302.000
28.110    3524.000
28.124    3894.000
28.139    3837.000
28.153    3750.000
28.168    3340.000
28.182    2813.000
28.197    2313.000
28.211    2052.000
28.226    1850.000
28.240    1681.000
28.255    1603.000
28.269    1656.000
28.284    1578.000
28.298    1654.000
28.313    1684.000
28.327    1888.000
28.342    2041.000
28.356    2379.000
28.371    2680.000
28.385    2978.000
28.400    3255.000
28.414    3456.000
28.429    3411.000
28.443    3145.000
28.458    2888.000
28.472    2565.000
28.487    2185.000
28.501    1901.000
28.516    1616.000
28.530    1553.000
28.545    1453.000
28.559    1350.000
28.574    1360.000
28.588    1362.000
28.603    1343.000
28.617    1402.000
28.632    1349.000
28.646    1395.000
28.661    1573.000
28.675    1554.000
28.690    1807.000
28.704    2024.000
28.718    2340.000
28.733    2869.000
28.747    3518.000
28.762    4518.000
28.776    5465.000
28.791    6601.000
28.805    7092.000
28.820    7162.000
28.834    7028.000
28.849    6186.000
28.863    5029.000
28.878    3844.000
28.892    3074.000
28.907    2359.000
28.921    1994.000
28.936    1689.000
28.950    1563.000
28.965    1425.000
28.979    1326.000
28.994    1242.000
29.008    1208.000
29.023    1153.000
29.037    1117.000
29.052    1096.000
29.066    1109.000
29.081    1112.000
29.095    1050.000
29.110    1062.000
29.124    1084.000
29.139    1093.000
29.153     992.000
29.168    1025.000
29.182     960.000
29.197    1012.000
29.211    1043.000
29.226     929.000
29.240     955.000
29.255    1019.000
29.269     942.000
29.284    1010.000
29.298    1005.000
29.313    1050.000
29.327     938.000
29.342     992.000
29.356     956.000
29.370     936.000
29.385     946.000
29.399     993.000
29.414     922.000
29.428     982.000
29.443     998.000
29.457     965.000
29.472    1000.000
29.486    1010.000
29.501     913.000
29.515     904.000
29.530     966.000
29.544     920.000
29.559     895.000
29.573     968.000
29.588     918.000
29.602     974.000
29.617     933.000
29.631     897.000
29.646     885.000
29.660     968.000
29.675     913.000
29.689     972.000
29.704     957.000
29.718     953.000
29.733     961.000
29.747     909.000
29.762     944.000
29.776     920.000
29.791     948.000
29.805     898.000
29.820     879.000
29.834     906.000
29.849     916.000
29.863     923.000
29.878     948.000
29.892     821.000
29.907     961.000
29.921     915.000
29.936     930.000
29.950     867.000
29.965     948.000
29.979     877.000
29.994     873.000
30.008     904.000
30.023     941.000
30.037     896.000
30.051     886.000
30.066     927.000
30.080     907.000
30.095     846.000
30.109     931.000
30.124     935.000
30.138     897.000
30.153     876.000
30.167     855.000
30.182     892.000
30.196     896.000
30.211     866.000
30.225     882.000
30.240     875.000
30.254     899.000
30.269     915.000
30.283     899.000
30.298     868.000
30.312     906.000
30.327     859.000
30.341     841.000
30.356     871.000
30.370     914.000
30.385     898.000
30.399     855.000
30.414     877.000
30.428     872.000
30.443     826.000
30.457     926.000
30.472     943.000
30.486     902.000
30.501     901.000
30.515     897.000
30.530     926.000
30.544     922.000
30.559     915.000
30.573     967.000
30.588     905.000
30.602     976.000
30.617    1006.000
30.631    1110.000
30.646    1153.000
30.660    1155.000
30.675    1234.000
30.689    1260.000
30.703    1153.000
30.718    1193.000
30.732    1171.000
30.747    1142.000
30.761    1207.000
30.776    1291.000
30.790    1328.000
30.805    1554.000
30.819    1607.000
30.834    1943.000
30.848    2116.000
30.863    2152.000
30.877    2153.000
30.892    1976.000
30.906    1783.000
30.921    1562.000
30.935    1298.000
30.950    1206.000
30.964    1033.000
30.979    1018.000
30.993     915.000
31.008     894.000
31.022     858.000
31.037     857.000
31.051     930.000
31.066     874.000
31.080     897.000
31.095     887.000
31.109     825.000
31.124     823.000
31.138     897.000
31.153     867.000
31.167     832.000
31.182     843.000
31.196     840.000
31.211     853.000
31.225     873.000
31.240     801.000
31.254     891.000
31.269     850.000
31.283     789.000
31.298     817.000
31.312     814.000
31.327     855.000
31.341     826.000
31.355     825.000
31.370     807.000
31.384     823.000
31.399     839.000
31.413     781.000
31.428     863.000
31.442     866.000
31.457     784.000
31.471     790.000
31.486     817.000
31.500     819.000
31.515     828.000
31.529     797.000
31.544     798.000
31.558     826.000
31.573     841.000
31.587     790.000
31.602     846.000
31.616     796.000
31.631     791.000
31.645     847.000
31.660     816.000
31.674     787.000
31.689     803.000
31.703     795.000
31.718     800.000
31.732     790.000
31.747     891.000
31.761     853.000
31.776     776.000
31.790     813.000
31.805     821.000
31.819     783.000
31.834     783.000
31.848     797.000
31.863     777.000
31.877     825.000
31.892     815.000
31.906     798.000
31.921     836.000
31.935     819.000
31.950     809.000
31.964     821.000
31.979     860.000
31.993     789.000
32.007     840.000
32.022     818.000
32.036     863.000
32.051     841.000
32.065     813.000
32.080     801.000
32.094     804.000
32.109     827.000
32.123     789.000
32.138     814.000
32.152     858.000
32.167     791.000
32.181     817.000
32.196     754.000
32.210     784.000
32.225     818.000
32.239     809.000
32.254     795.000
32.268     795.000
32.283     844.000
32.297     793.000
32.312     812.000
32.326     815.000
32.341     758.000
32.355     800.000
32.370     857.000
32.384     844.000
32.399     834.000
32.413     877.000
32.428     815.000
32.442     838.000
32.457     881.000
32.471     876.000
32.486     857.000
32.500     869.000
32.515     938.000
32.529    1050.000
32.544    1044.000
32.558    1110.000
32.573    1278.000
32.587    1478.000
32.602    1655.000
32.616    1873.000
32.631    2062.000
32.645    2201.000
32.660    1963.000
32.674    1951.000
32.688    1691.000
32.703    1413.000
32.717    1275.000
32.732    1168.000
32.746    1034.000
32.761     899.000
32.775     941.000
32.790     949.000
32.804     874.000
32.819     886.000
32.833     888.000
32.848     908.000
32.862     946.000
32.877     892.000
32.891     921.000
32.906    1052.000
32.920    1040.000
32.935    1168.000
32.949    1258.000
32.964    1299.000
32.978    1407.000
32.993    1489.000
33.007    1475.000
33.022    1479.000
33.036    1336.000
33.051    1188.000
33.065    1134.000
33.080    1027.000
33.094     994.000
33.109     948.000
33.123     941.000
33.138     867.000
33.152     870.000
33.167     844.000
33.181     836.000
33.196     874.000
33.210     888.000
33.225     814.000
33.239     864.000
33.254     859.000
33.268     945.000
33.283     881.000
33.297     913.000
33.312    1020.000
33.326    1041.000
33.340    1105.000
33.355    1149.000
33.369    1337.000
33.384    1484.000
33.398    1786.000
33.413    2236.000
33.427    2785.000
33.442    3430.000
33.456    4168.000
33.471    4696.000
33.485    5055.000
33.500    4910.000
33.514    4482.000
33.529    3637.000
33.543    3103.000
33.558    2347.000
33.572    1910.000
33.587    1569.000
33.601    1328.000
33.616    1156.000
33.630    1109.000
33.645    1010.000
33.659     934.000
33.674     915.000
33.688     900.000
33.703     849.000
33.717     859.000
33.732     855.000
33.746     869.000
33.761     777.000
33.775     819.000
33.790     799.000
33.804     838.000
33.819     805.000
33.833     859.000
33.848     829.000
33.862     769.000
33.877     835.000
33.891     805.000
33.906     826.000
33.920     832.000
33.935     864.000
33.949     816.000
33.964     847.000
33.978     851.000
33.992     901.000
34.007     892.000
34.021     958.000
34.036     958.000
34.050    1035.000
34.065    1121.000
34.079    1210.000
34.094    1359.000
34.108    1526.000
34.123    1814.000
34.137    2143.000
34.152    2499.000
34.166    2714.000
34.181    3051.000
34.195    3133.000
34.210    2991.000
34.224    2880.000
34.239    2609.000
34.253    2262.000
34.268    2052.000
34.282    1647.000
34.297    1459.000
34.311    1304.000
34.326    1191.000
34.340    1041.000
34.355     993.000
34.369     932.000
34.384     956.000
34.398     878.000
34.413     838.000
34.427     813.000
34.442     795.000
34.456     835.000
34.471     784.000
34.485     834.000
34.500     843.000
34.514     779.000
34.529     755.000
34.543     815.000
34.558     766.000
34.572     743.000
34.587     743.000
34.601     795.000
34.616     774.000
34.630     696.000
34.644     781.000
34.659     733.000
34.673     674.000
34.688     728.000
34.702     790.000
34.717     745.000
34.731     712.000
34.746     752.000
34.760     765.000
34.775     759.000
34.789     726.000
34.804     741.000
34.818     727.000
34.833     702.000
34.847     746.000
34.862     716.000
34.876     778.000
34.891     742.000
34.905     759.000
34.920     686.000
34.934     669.000
34.949     749.000
34.963     709.000
34.978     687.000
34.992     701.000
35.007     750.000
35.021     713.000
35.036     734.000
35.050     729.000
35.065     688.000
35.079     726.000
35.094     673.000
35.108     712.000
35.123     731.000
35.137     744.000
35.152     719.000
35.166     694.000
35.181     700.000
35.195     699.000
35.210     739.000
35.224     713.000
35.239     722.000
35.253     676.000
35.268     692.000
35.282     749.000
35.296     709.000
35.311     716.000
35.325     703.000
35.340     747.000
35.354     715.000
35.369     741.000
35.383     704.000
35.398     680.000
35.412     699.000
35.427     740.000
35.441     687.000
35.456     723.000
35.470     703.000
35.485     722.000
35.499     687.000
35.514     682.000
35.528     805.000
35.543     762.000
35.557     744.000
35.572     730.000
35.586     747.000
35.601     773.000
35.615     789.000
35.630     758.000
35.644     827.000
35.659     791.000
35.673     864.000
35.688     885.000
35.702     908.000
35.717     934.000
35.731    1039.000
35.746    1133.000
35.760    1242.000
35.775    1386.000
35.789    1620.000
35.804    1797.000
35.818    1931.000
35.833    2049.000
35.847    2246.000
35.862    2414.000
35.876    2552.000
35.891    2417.000
35.905    2353.000
35.920    2055.000
35.934    1825.000
35.949    1558.000
35.963    1265.000
35.977    1142.000
35.992    1022.000
36.006     910.000
36.021     870.000
36.035     924.000
36.050     803.000
36.064     774.000
36.079     785.000
36.093     785.000
36.108     707.000
36.122     784.000
36.137     733.000
36.151     735.000
36.166     753.000
36.180     737.000
36.195     728.000
36.209     736.000
36.224     663.000
36.238     735.000
36.253     698.000
36.267     741.000
36.282     702.000
36.296     717.000
36.311     678.000
36.325     666.000
36.340     751.000
36.354     732.000
36.369     739.000
36.383     738.000
36.398     720.000
36.412     720.000
36.427     745.000
36.441     775.000
36.456     696.000
36.470     730.000
36.485     804.000
36.499     771.000
36.514     802.000
36.528     802.000
36.543     841.000
36.557     876.000
36.572     904.000
36.586     942.000
36.601    1004.000
36.615    1100.000
36.629    1222.000
36.644    1462.000
36.658    1682.000
36.673    2099.000
36.687    2287.000
36.702    2611.000
36.716    2815.000
36.731    2795.000
36.745    2581.000
36.760    2478.000
36.774    2221.000
36.789    1973.000
36.803    1872.000
36.818    1657.000
36.832    1707.000
36.847    1678.000
36.861    1708.000
36.876    1824.000
36.890    1857.000
36.905    1737.000
36.919    1576.000
36.934    1443.000
36.948    1334.000
36.963    1195.000
36.977    1112.000
36.992    1052.000
37.006    1047.000
37.021    1065.000
37.035    1056.000
37.050    1088.000
37.064    1022.000
37.079    1149.000
37.093    1159.000
37.108    1166.000
37.122    1231.000
37.137    1112.000
37.151    1114.000
37.166     972.000
37.180     939.000
37.195     916.000
37.209     870.000
37.224     850.000
37.238     891.000
37.253     802.000
37.267     821.000
37.281     826.000
37.296     807.000
37.310     867.000
37.325     939.000
37.339     943.000
37.354    1013.000
37.368    1162.000
37.383    1265.000
37.397    1356.000
37.412    1632.000
37.426    2010.000
37.441    2164.000
37.455    2392.000
37.470    2397.000
37.484    2412.000
37.499    2227.000
37.513    2044.000
37.528    1807.000
37.542    1563.000
37.557    1414.000
37.571    1222.000
37.586    1093.000
37.600    1058.000
37.615     952.000
37.629     943.000
37.644     853.000
37.658     854.000
37.673     848.000
37.687     804.000
37.702     793.000
37.716     843.000
37.731     857.000
37.745     883.000
37.760    1048.000
37.774    1124.000
37.789    1198.000
37.803    1372.000
37.818    1566.000
37.832    1626.000
37.847    1691.000
37.861    1656.000
37.876    1472.000
37.890    1341.000
37.905    1150.000
37.919    1021.000
37.933     871.000
37.948     872.000
37.962     804.000
37.977     720.000
37.991     746.000
38.006     719.000
38.020     720.000
38.035     635.000
38.049     712.000
38.064     689.000
38.078     678.000
38.093     664.000
38.107     662.000
38.122     661.000
38.136     690.000
38.151     712.000
38.165     688.000
38.180     699.000
38.194     725.000
38.209     782.000
38.223     831.000
38.238     844.000
38.252     852.000
38.267     818.000
38.281     812.000
38.296     829.000
38.310     785.000
38.325     766.000
38.339     765.000
38.354     719.000
38.368     647.000
38.383     656.000
38.397     648.000
38.412     662.000
38.426     607.000
38.441     598.000
38.455     595.000
38.470     686.000
38.484     648.000
38.499     604.000
38.513     600.000
38.528     623.000
38.542     618.000
38.557     574.000
38.571     633.000
38.586     601.000
38.600     594.000
38.614     619.000
38.629     612.000
38.643     620.000
38.658     664.000
38.672     604.000
38.687     652.000
38.701     651.000
38.716     687.000
38.730     654.000
38.745     640.000
38.759     643.000
38.774     606.000
38.788     657.000
38.803     608.000
38.817     629.000
38.832     636.000
38.846     680.000
38.861     646.000
38.875     630.000
38.890     624.000
38.904     649.000
38.919     613.000
38.933     567.000
38.948     659.000
38.962     580.000
38.977     670.000
38.991     644.000
39.006     685.000
39.020     663.000
39.035     613.000
39.049     653.000
39.064     623.000
39.078     686.000
39.093     682.000
39.107     707.000
39.122     694.000
39.136     751.000
39.151     761.000
39.165     824.000
39.180     924.000
39.194    1070.000
39.209    1210.000
39.223    1419.000
39.238    1577.000
39.252    1774.000
39.266    2013.000
39.281    2137.000
39.295    2245.000
39.310    2133.000
39.324    2125.000
39.339    2092.000
39.353    1887.000
39.368    1647.000
39.382    1509.000
39.397    1313.000
39.411    1285.000
39.426    1037.000
39.440     860.000
39.455     809.000
39.469     777.000
39.484     744.000
39.498     732.000
39.513     701.000
39.527     657.000
39.542     646.000
39.556     653.000
39.571     660.000
39.585     676.000
39.600     645.000
39.614     607.000
39.629     607.000
39.643     643.000
39.658     618.000
39.672     618.000
39.687     612.000
39.701     610.000
39.716     622.000
39.730     627.000
39.745     580.000
39.759     614.000
39.774     650.000
39.788     626.000
39.803     650.000
39.817     614.000
39.832     621.000
39.846     624.000
39.861     601.000
39.875     596.000
39.890     619.000
39.904     620.000
39.918     656.000
39.933     639.000
39.947     672.000
39.962     695.000
39.976     758.000
39.991     712.000
40.005     751.000
40.020     725.000
40.034     753.000
40.049     781.000
40.063     742.000
40.078     747.000
40.092     757.000
40.107     745.000
40.121     773.000
40.136     813.000
40.150     799.000
40.165     905.000
40.179     942.000
40.194     934.000
40.208     923.000
40.223     923.000
40.237     820.000
40.252     825.000
40.266     773.000
40.281     724.000
40.295     674.000
40.310     654.000
40.324     624.000
40.339     660.000
40.353     654.000
40.368     613.000
40.382     613.000
40.397     608.000
40.411     636.000
40.426     553.000
40.440     582.000
40.455     598.000
40.469     597.000
40.484     618.000
40.498     606.000
40.513     632.000
40.527     613.000
40.542     620.000
40.556     585.000
40.570     603.000
40.585     627.000
40.599     651.000
40.614     637.000
40.628     655.000
40.643     686.000
40.657     666.000
40.672     718.000
40.686     759.000
40.701     764.000
40.715     865.000
40.730     854.000
40.744     865.000
40.759     894.000
40.773     854.000
40.788     814.000
40.802     756.000
40.817     735.000
40.831     649.000
40.846     680.000
40.860     663.000
40.875     666.000
40.889     635.000
40.904     606.000
40.918     625.000
40.933     620.000
40.947     553.000
40.962     617.000
40.976     588.000
40.991     614.000
41.005     596.000
41.020     589.000
41.034     618.000
41.049     647.000
41.063     557.000
41.078     631.000
41.092     635.000
41.107     645.000
41.121     628.000
41.136     660.000
41.150     703.000
41.165     714.000
41.179     770.000
41.194     826.000
41.208     807.000
41.222     934.000
41.237     851.000
41.251     891.000
41.266     857.000
41.280     819.000
41.295     772.000
41.309     720.000
41.324     695.000
41.338     659.000
41.353     634.000
41.367     611.000
41.382     657.000
41.396     604.000
41.411     616.000
41.425     625.000
41.440     588.000
41.454     609.000
41.469     589.000
41.483     632.000
41.498     684.000
41.512     640.000
41.527     617.000
41.541     609.000
41.556     654.000
41.570     642.000
41.585     672.000
41.599     701.000
41.614     624.000
41.628     669.000
41.643     662.000
41.657     667.000
41.672     722.000
41.686     753.000
41.701     792.000
41.715     861.000
41.730     876.000
41.744     989.000
41.759    1072.000
41.773    1137.000
41.788    1331.000
41.802    1438.000
41.817    1600.000
41.831    1986.000
41.846    1984.000
41.860    2107.000
41.875    2277.000
41.889    2288.000
41.903    2125.000
41.918    1965.000
41.932    1724.000
41.947    1567.000
41.961    1277.000
41.976    1189.000
41.990    1010.000
42.005     927.000
42.019     949.000
42.034     784.000
42.048     779.000
42.063     765.000
42.077     795.000
42.092     767.000
42.106     684.000
42.121     708.000
42.135     714.000
42.150     684.000
42.164     626.000
42.179     637.000
42.193     663.000
42.208     624.000
42.222     638.000
42.237     619.000
42.251     636.000
42.266     681.000
42.280     651.000
42.295     664.000
42.309     653.000
42.324     607.000
42.338     641.000
42.353     634.000
42.367     662.000
42.382     696.000
42.396     699.000
42.411     721.000
42.425     713.000
42.440     744.000
42.454     776.000
42.469     784.000
42.483     802.000
42.498     832.000
42.512     844.000
42.527     892.000
42.541     932.000
42.555     967.000
42.570    1044.000
42.584    1105.000
42.599    1177.000
42.613    1195.000
42.628    1231.000
42.642    1150.000
42.657    1044.000
42.671     948.000
42.686     897.000
42.700     784.000
42.715     751.000
42.729     673.000
42.744     649.000
42.758     676.000
42.773     623.000
42.787     591.000
42.802     579.000
42.816     572.000
42.831     597.000
42.845     601.000
42.860     619.000
42.874     627.000
42.889     604.000
42.903     587.000
42.918     604.000
42.932     624.000
42.947     594.000
42.961     623.000
42.976     625.000
42.990     607.000
43.005     604.000
43.019     607.000
43.034     576.000
43.048     642.000
43.063     589.000
43.077     626.000
43.092     621.000
43.106     601.000
43.121     634.000
43.135     653.000
43.150     625.000
43.164     621.000
43.179     638.000
43.193     710.000
43.207     630.000
43.222     668.000
43.236     661.000
43.251     696.000
43.265     666.000
43.280     643.000
43.294     617.000
43.309     633.000
43.323     589.000
43.338     641.000
43.352     664.000
43.367     628.000
43.381     657.000
43.396     664.000
43.410     639.000
43.425     650.000
43.439     679.000
43.454     728.000
43.468     698.000
43.483     755.000
43.497     791.000
43.512     842.000
43.526     930.000
43.541     948.000
43.555    1092.000
43.570    1194.000
43.584    1235.000
43.599    1469.000
43.613    1461.000
43.628    1323.000
43.642    1310.000
43.657    1289.000
43.671    1189.000
43.686    1038.000
43.700    1002.000
43.715     923.000
43.729     829.000
43.744     775.000
43.758     767.000
43.773     768.000
43.787     726.000
43.802     703.000
43.816     721.000
43.831     686.000
43.845     742.000
43.859     692.000
43.874     706.000
43.888     779.000
43.903     776.000
43.917     854.000
43.932     986.000
43.946    1026.000
43.961    1181.000
43.975    1199.000
43.990    1370.000
44.004    1424.000
44.019    1511.000
44.033    1459.000
44.048    1402.000
44.062    1346.000
44.077    1222.000
44.091    1075.000
44.106    1014.000
44.120     876.000
44.135     824.000
44.149     733.000
44.164     766.000
44.178     755.000
44.193     712.000
44.207     711.000
44.222     659.000
44.236     727.000
44.251     678.000
44.265     692.000
44.280     683.000
44.294     696.000
44.309     739.000
44.323     781.000
44.338     744.000
44.352     802.000
44.367     846.000
44.381     842.000
44.396     869.000
44.410     902.000
44.425     898.000
44.439     950.000
44.454    1082.000
44.468    1164.000
44.483    1237.000
44.497    1536.000
44.512    1676.000
44.526    1883.000
44.540    1949.000
44.555    2048.000
44.569    2063.000
44.584    2011.000
44.598    1934.000
44.613    1743.000
44.627    1557.000
44.642    1395.000
44.656    1236.000
44.671    1092.000
44.685    1024.000
44.700     901.000
44.714     894.000
44.729     870.000
44.743     830.000
44.758     790.000
44.772     801.000
44.787     837.000
44.801     770.000
44.816     793.000
44.830     811.000
44.845     901.000
44.859     832.000
44.874     919.000
44.888     980.000
44.903     937.000
44.917     888.000
44.932     827.000
44.946     817.000
44.961     826.000
44.975     771.000
44.990     732.000
45.004     701.000
45.019     663.000
45.033     710.000
45.048     649.000
45.062     618.000
45.077     603.000
45.091     681.000
45.106     667.000
45.120     618.000
45.135     686.000
45.149     655.000
45.164     653.000
45.178     645.000
45.192     643.000
45.207     713.000
45.221     699.000
45.236     714.000
45.250     711.000
45.265     722.000
45.279     749.000
45.294     846.000
45.308     908.000
45.323     974.000
45.337    1012.000
45.352     928.000
45.366    1005.000
45.381    1012.000
45.395     965.000
45.410     869.000
45.424     846.000
45.439     721.000
45.453     721.000
45.468     707.000
45.482     699.000
45.497     666.000
45.511     715.000
45.526     660.000
45.540     628.000
45.555     642.000
45.569     596.000
45.584     650.000
45.598     592.000
45.613     588.000
45.627     630.000
45.642     608.000
45.656     603.000
45.671     628.000
45.685     606.000
45.700     581.000
45.714     601.000
45.729     599.000
45.743     615.000
45.758     594.000
45.772     619.000
45.787     585.000
45.801     588.000
45.816     635.000
45.830     587.000
45.844     604.000
45.859     636.000
45.873     640.000
45.888     619.000
45.902     586.000
45.917     610.000
45.931     660.000
45.946     692.000
45.960     656.000
45.975     720.000
45.989     740.000
46.004     820.000
46.018     865.000
46.033     971.000
46.047    1140.000
46.062    1208.000
46.076    1263.000
46.091    1295.000
46.105    1235.000
46.120    1271.000
46.134    1151.000
46.149    1007.000
46.163     884.000
46.178     816.000
46.192     704.000
46.207     720.000
46.221     646.000
46.236     650.000
46.250     625.000
46.265     601.000
46.279     597.000
46.294     609.000
46.308     659.000
46.323     649.000
46.337     605.000
46.352     623.000
46.366     601.000
46.381     593.000
46.395     644.000
46.410     566.000
46.424     608.000
46.439     583.000
46.453     595.000
46.468     610.000
46.482     598.000
46.496     617.000
46.511     626.000
46.525     635.000
46.540     585.000
46.554     626.000
46.569     670.000
46.583     631.000
46.598     638.000
46.612     714.000
46.627     643.000
46.641     688.000
46.656     732.000
46.670     722.000
46.685     785.000
46.699     877.000
46.714     888.000
46.728     947.000
46.743    1061.000
46.757    1009.000
46.772    1209.000
46.786    1245.000
46.801    1343.000
46.815    1537.000
46.830    1576.000
46.844    1659.000
46.859    1680.000
46.873    1594.000
46.888    1513.000
46.902    1442.000
46.917    1169.000
46.931    1136.000
46.946    1050.000
46.960     935.000
46.975     859.000
46.989     728.000
47.004     726.000
47.018     699.000
47.033     730.000
47.047     690.000
47.062     684.000
47.076     658.000
47.091     641.000
47.105     673.000
47.120     595.000
47.134     589.000
47.148     615.000
47.163     667.000
47.177     669.000
47.192     634.000
47.206     664.000
47.221     689.000
47.235     678.000
47.250     633.000
47.264     686.000
47.279     687.000
47.293     766.000
47.308     790.000
47.322     789.000
47.337     896.000
47.351     914.000
47.366     972.000
47.380     944.000
47.395     973.000
47.409     949.000
47.424     858.000
47.438     871.000
47.453     728.000
47.467     660.000
47.482     675.000
47.496     656.000
47.511     621.000
47.525     628.000
47.540     589.000
47.554     599.000
47.569     612.000
47.583     583.000
47.598     611.000
47.612     558.000
47.627     599.000
47.641     580.000
47.656     572.000
47.670     555.000
47.685     557.000
47.699     561.000
47.714     557.000
47.728     584.000
47.743     510.000
47.757     567.000
47.772     548.000
47.786     557.000
47.801     596.000
47.815     537.000
47.829     593.000
47.844     540.000
47.858     576.000
47.873     529.000
47.887     596.000
47.902     524.000
47.916     553.000
47.931     562.000
47.945     585.000
47.960     523.000
47.974     553.000
47.989     551.000
48.003     519.000
48.018     552.000
48.032     586.000
48.047     549.000
48.061     561.000
48.076     525.000
48.090     556.000
48.105     569.000
48.119     588.000
48.134     574.000
48.148     560.000
48.163     574.000
48.177     595.000
48.192     591.000
48.206     536.000
48.221     570.000
48.235     570.000
48.250     611.000
48.264     580.000
48.279     602.000
48.293     654.000
48.308     622.000
48.322     614.000
48.337     595.000
48.351     631.000
48.366     689.000
48.380     696.000
48.395     762.000
48.409     776.000
48.424     809.000
48.438     905.000
48.453    1013.000
48.467    1045.000
48.481    1081.000
48.496    1120.000
48.510    1204.000
48.525    1147.000
48.539    1131.000
48.554    1128.000
48.568    1011.000
48.583     980.000
48.597     906.000
48.612     835.000
48.626     741.000
48.641     700.000
48.655     692.000
48.670     673.000
48.684     625.000
48.699     622.000
48.713     648.000
48.728     593.000
48.742     623.000
48.757     608.000
48.771     607.000
48.786     567.000
48.800     575.000
48.815     578.000
48.829     592.000
48.844     571.000
48.858     608.000
48.873     610.000
48.887     595.000
48.902     587.000
48.916     619.000
48.931     578.000
48.945     551.000
48.960     622.000
48.974     637.000
48.989     612.000
49.003     614.000
49.018     632.000
49.032     663.000
49.047     663.000
49.061     651.000
49.076     737.000
49.090     796.000
49.105     816.000
49.119     910.000
49.133     936.000
49.148    1047.000
49.162    1075.000
49.177    1210.000
49.191    1137.000
49.206    1112.000
49.220    1142.000
49.235    1003.000
49.249     980.000
49.264     848.000
49.278     838.000
49.293     735.000
49.307     768.000
49.322     638.000
49.336     642.000
49.351     632.000
49.365     645.000
49.380     632.000
49.394     573.000
49.409     616.000
49.423     642.000
49.438     623.000
49.452     595.000
49.467     558.000
49.481     556.000
49.496     587.000
49.510     597.000
49.525     569.000
49.539     567.000
49.554     576.000
49.568     595.000
49.583     588.000
49.597     544.000
49.612     547.000
49.626     562.000
49.641     569.000
49.655     590.000
49.670     563.000
49.684     568.000
49.699     568.000
49.713     556.000
49.728     521.000
49.742     597.000
49.757     573.000
49.771     580.000
49.785     573.000
49.800     554.000
49.814     582.000
49.829     556.000
49.843     599.000
49.858     590.000
49.872     650.000
49.887     638.000
49.901     673.000
49.916     684.000
49.930     662.000
49.945     672.000
49.959     831.000
49.974     853.000
49.988     923.000
50.003     943.000
50.017    1070.000
50.032    1050.000
50.046    1165.000
50.061    1180.000
50.075    1118.000
50.090    1081.000
50.104    1084.000
50.119    1070.000
50.133    1013.000
50.148     962.000
50.162     847.000
50.177     972.000
50.191     945.000
50.206     915.000
50.220     918.000
50.235     861.000
50.249     880.000
50.264     859.000
50.278     793.000
50.293     792.000
50.307     773.000
50.322     748.000
50.336     732.000
50.351     744.000
50.365     749.000
50.380     756.000
50.394     751.000
50.409     706.000
50.423     762.000
50.438     706.000
50.452     722.000
50.466     739.000
50.481     728.000
50.495     684.000
50.510     768.000
50.524     705.000
50.539     733.000
50.553     722.000
50.568     792.000
50.582     794.000
50.597     819.000
50.611     822.000
50.626     786.000
50.640     830.000
50.655     838.000
50.669     939.000
50.684     912.000
50.698     925.000
50.713     938.000
50.727    1021.000
50.742    1015.000
50.756    1065.000
50.771    1040.000
50.785    1046.000
50.800     978.000
50.814     968.000
50.829     942.000
50.843     876.000
50.858     876.000
50.872     912.000
50.887     922.000
50.901     866.000
50.916     898.000
50.930     934.000
50.945     923.000
50.959     890.000
50.974     976.000
50.988     918.000
51.003     856.000
51.017     885.000
51.032     885.000
51.046     928.000
51.061     939.000
51.075     998.000
51.090     959.000
51.104     993.000
51.118     978.000
51.133     940.000
51.147     931.000
51.162     908.000
51.176     921.000
51.191     863.000
51.205     814.000
51.220     786.000
51.234     755.000
51.249     725.000
51.263     727.000
51.278     694.000
51.292     664.000
51.307     658.000
51.321     636.000
51.336     616.000
51.350     619.000
51.365     600.000
51.379     610.000
51.394     594.000
51.408     593.000
51.423     632.000
51.437     603.000
51.452     637.000
51.466     601.000
51.481     615.000
51.495     623.000
51.510     619.000
51.524     623.000
51.539     638.000
51.553     628.000
51.568     588.000
51.582     596.000
51.597     635.000
51.611     628.000
51.626     649.000
51.640     630.000
51.655     668.000
51.669     633.000
51.684     673.000
51.698     648.000
51.713     665.000
51.727     645.000
51.742     561.000
51.756     585.000
51.770     638.000
51.785     598.000
51.799     559.000
51.814     581.000
51.828     555.000
51.843     528.000
51.857     589.000
51.872     568.000
51.886     557.000
51.901     527.000
51.915     540.000
51.930     577.000
51.944     553.000
51.959     562.000
51.973     518.000
51.988     558.000
52.002     642.000
52.017     603.000
52.031     622.000
52.046     633.000
52.060     607.000
52.075     588.000
52.089     647.000
52.104     639.000
52.118     652.000
52.133     620.000
52.147     604.000
52.162     634.000
52.176     591.000
52.191     613.000
52.205     566.000
52.220     567.000
52.234     524.000
52.249     617.000
52.263     527.000
52.278     518.000
52.292     558.000
52.307     532.000
52.321     518.000
52.336     547.000
52.350     539.000
52.365     540.000
52.379     529.000
52.394     491.000
52.408     523.000
52.422     513.000
52.437     543.000
52.451     530.000
52.466     517.000
52.480     527.000
52.495     539.000
52.509     517.000
52.524     559.000
52.538     535.000
52.553     525.000
52.567     523.000
52.582     520.000
52.596     529.000
52.611     532.000
52.625     557.000
52.640     519.000
52.654     482.000
52.669     501.000
52.683     514.000
52.698     479.000
52.712     506.000
52.727     485.000
52.741     510.000
52.756     547.000
52.770     491.000
52.785     535.000
52.799     510.000
52.814     514.000
52.828     512.000
52.843     517.000
52.857     542.000
52.872     491.000
52.886     484.000
52.901     521.000
52.915     535.000
52.930     571.000
52.944     519.000
52.959     527.000
52.973     520.000
52.988     558.000
53.002     505.000
53.017     566.000
53.031     544.000
53.046     538.000
53.060     487.000
53.075     555.000
53.089     521.000
53.103     534.000
53.118     571.000
53.132     586.000
53.147     524.000
53.161     592.000
53.176     547.000
53.190     557.000
53.205     593.000
53.219     568.000
53.234     574.000
53.248     575.000
53.263     669.000
53.277     623.000
53.292     624.000
53.306     612.000
53.321     694.000
53.335     653.000
53.350     685.000
53.364     680.000
53.379     699.000
53.393     723.000
53.408     699.000
53.422     775.000
53.437     687.000
53.451     718.000
53.466     645.000
53.480     674.000
53.495     646.000
53.509     623.000
53.524     633.000
53.538     665.000
53.553     609.000
53.567     605.000
53.582     563.000
53.596     578.000
53.611     602.000
53.625     595.000
53.640     561.000
53.654     605.000
53.669     619.000
53.683     624.000
53.698     683.000
53.712     687.000
53.727     694.000
53.741     762.000
53.755     762.000
53.770     786.000
53.784     735.000
53.799     740.000
53.813     775.000
53.828     735.000
53.842     674.000
53.857     632.000
53.871     676.000
53.886     653.000
53.900     639.000
53.915     654.000
53.929     644.000
53.944     664.000
53.958     651.000
53.973     673.000
53.987     694.000
54.002     686.000
54.016     654.000
54.031     686.000
54.045     724.000
54.060     710.000
54.074     688.000
54.089     640.000
54.103     575.000
54.118     595.000
54.132     574.000
54.147     565.000
54.161     530.000
54.176     559.000
54.190     530.000
54.205     554.000
54.219     506.000
54.234     572.000
54.248     541.000
54.263     532.000
54.277     591.000
54.292     546.000
54.306     546.000
54.321     554.000
54.335     595.000
54.350     615.000
54.364     619.000
54.379     644.000
54.393     638.000
54.407     642.000
54.422     661.000
54.436     681.000
54.451     636.000
54.465     663.000
54.480     624.000
54.494     581.000
54.509     613.000
54.523     598.000
54.538     584.000
54.552     587.000
54.567     551.000
54.581     546.000
54.596     537.000
54.610     497.000
54.625     585.000
54.639     544.000
54.654     588.000
54.668     540.000
54.683     621.000
54.697     591.000
54.712     611.000
54.726     596.000
54.741     608.000
54.755     628.000
54.770     607.000
54.784     632.000
54.799     679.000
54.813     709.000
54.828     642.000
54.842     643.000
54.857     658.000
54.871     693.000
54.886     726.000
54.900     722.000
54.915     765.000
54.929     723.000
54.944     862.000
54.958     779.000
54.973     816.000
54.987     817.000
55.002     859.000
55.016     809.000
55.031     865.000
55.045     827.000
55.059     761.000
55.074     822.000
55.088     770.000
55.103     821.000
55.117     812.000
55.132     793.000
55.146     803.000
55.161     865.000
55.175     836.000
55.190     820.000
55.204     818.000
55.219     748.000
55.233     799.000
55.248     794.000
55.262     780.000
55.277     713.000
55.291     708.000
55.306     615.000
55.320     638.000
55.335     601.000
55.349     558.000
55.364     590.000
55.378     556.000
55.393     585.000
55.407     551.000
55.422     593.000
55.436     568.000
55.451     543.000
55.465     582.000
55.480     604.000
55.494     631.000
55.509     572.000
55.523     683.000
55.538     673.000
55.552     673.000
55.567     717.000
55.581     781.000
55.596     786.000
55.610     732.000
55.625     707.000
55.639     730.000
55.654     655.000
55.668     680.000
55.683     712.000
55.697     674.000
55.711     629.000
55.726     677.000
55.740     645.000
55.755     596.000
55.769     600.000
55.784     598.000
55.798     603.000
55.813     576.000
55.827     555.000
55.842     485.000
55.856     552.000
55.871     541.000
55.885     524.000
55.900     545.000
55.914     505.000
55.929     506.000
55.943     489.000
55.958     546.000
55.972     567.000
55.987     523.000
56.001     510.000
56.016     534.000
56.030     533.000
56.045     548.000
56.059     536.000
56.074     527.000
56.088     539.000
56.103     536.000
56.117     493.000
56.132     535.000
56.146     512.000
56.161     538.000
56.175     491.000
56.190     535.000
56.204     554.000
56.219     594.000
56.233     555.000
56.248     574.000
56.262     585.000
56.277     611.000
56.291     621.000
56.306     602.000
56.320     629.000
56.335     685.000
56.349     629.000
56.364     627.000
56.378     705.000
56.392     766.000
56.407     754.000
56.421     721.000
56.436     723.000
56.450     710.000
56.465     662.000
56.479     671.000
56.494     684.000
56.508     609.000
56.523     638.000
56.537     615.000
56.552     602.000
56.566     599.000
56.581     618.000
56.595     613.000
56.610     606.000
56.624     608.000
56.639     613.000
56.653     609.000
56.668     620.000
56.682     603.000
56.697     575.000
56.711     635.000
56.726     660.000
56.740     675.000
56.755     709.000
56.769     777.000
56.784     728.000
56.798     789.000
56.813     777.000
56.827     871.000
56.842     912.000
56.856     995.000
56.871     957.000
56.885     959.000
56.900     939.000
56.914     921.000
56.929     863.000
56.943     730.000
56.958     739.000
56.972     680.000
56.987     589.000
57.001     614.000
57.016     619.000
57.030     618.000
57.044     570.000
57.059     574.000
57.073     565.000
57.088     555.000
57.102     573.000
57.117     503.000
57.131     563.000
57.146     536.000
57.160     528.000
57.175     544.000
57.189     525.000
57.204     524.000
57.218     559.000
57.233     588.000
57.247     528.000
57.262     542.000
57.276     610.000
57.291     566.000
57.305     618.000
57.320     586.000
57.334     612.000
57.349     603.000
57.363     635.000
57.378     628.000
57.392     584.000
57.407     670.000
57.421     692.000
57.436     667.000
57.450     690.000
57.465     638.000
57.479     675.000
57.494     644.000
57.508     700.000
57.523     710.000
57.537     675.000
57.552     607.000
57.566     637.000
57.581     701.000
57.595     629.000
57.610     685.000
57.624     646.000
57.639     687.000
57.653     648.000
57.668     642.000
57.682     663.000
57.696     693.000
57.711     715.000
57.725     796.000
57.740     797.000
57.754     827.000
57.769     912.000
57.783     898.000
57.798     973.000
57.812    1000.000
57.827    1005.000
57.841     972.000
57.856     906.000
57.870     822.000
57.885     856.000
57.899     786.000
57.914     789.000
57.928     706.000
57.943     725.000
57.957     679.000
57.972     715.000
57.986     670.000
58.001     665.000
58.015     703.000
58.030     711.000
58.044     664.000
58.059     676.000
58.073     670.000
58.088     679.000
58.102     673.000
58.117     713.000
58.131     701.000
58.146     643.000
58.160     678.000
58.175     658.000
58.189     659.000
58.204     725.000
58.218     683.000
58.233     652.000
58.247     651.000
58.262     617.000
58.276     597.000
58.291     612.000
58.305     609.000
58.320     597.000
58.334     579.000
58.348     553.000
58.363     564.000
58.377     517.000
58.392     558.000
58.406     557.000
58.421     560.000
58.435     513.000
58.450     507.000
58.464     563.000
58.479     562.000
58.493     528.000
58.508     518.000
58.522     542.000
58.537     544.000
58.551     564.000
58.566     514.000
58.580     540.000
58.595     506.000
58.609     530.000
58.624     562.000
58.638     516.000
58.653     529.000
58.667     564.000
58.682     557.000
58.696     592.000
58.711     559.000
58.725     532.000
58.740     623.000
58.754     587.000
58.769     572.000
58.783     634.000
58.798     591.000
58.812     635.000
58.827     624.000
58.841     628.000
58.856     581.000
58.870     584.000
58.885     599.000
58.899     567.000
58.914     575.000
58.928     545.000
58.943     611.000
58.957     580.000
58.972     579.000
58.986     580.000
59.001     616.000
59.015     632.000
59.029     629.000
59.044     610.000
59.058     668.000
59.073     726.000
59.087     662.000
59.102     689.000
59.116     727.000
59.131     733.000
59.145     710.000
59.160     752.000
59.174     752.000
59.189     722.000
59.203     759.000
59.218     748.000
59.232     763.000
59.247     760.000
59.261     794.000
59.276     824.000
59.290     809.000
59.305     838.000
59.319     793.000
59.334     799.000
59.348     825.000
59.363     837.000
59.377     787.000
59.392     745.000
59.406     698.000
59.421     630.000
59.435     698.000
59.450     639.000
59.464     690.000
59.479     653.000
59.493     614.000
59.508     617.000
59.522     613.000
59.537     631.000
59.551     617.000
59.566     600.000
59.580     572.000
59.595     608.000
59.609     648.000
59.624     653.000
59.638     665.000
59.653     654.000
59.667     670.000
59.681     642.000
59.696     675.000
59.710     672.000
59.725     665.000
59.739     667.000
59.754     664.000
59.768     677.000
59.783     687.000
59.797     639.000
59.812     647.000
59.826     649.000
59.841     632.000
59.855     589.000
59.870     595.000
59.884     592.000
59.899     584.000
59.913     586.000
59.928     565.000
59.942     542.000
59.957     572.000
59.971     606.000
59.986     567.000
60.000     612.000
60.015     599.000
60.029     631.000
60.044     562.000
60.058     569.000
60.073     611.000
60.087     573.000
60.102     603.000
60.116     664.000
60.131     683.000
60.145     650.000
60.160     761.000
60.174     709.000
60.189     676.000
60.203     697.000
60.218     634.000
60.232     639.000
60.247     651.000
60.261     621.000
60.276     601.000
60.290     597.000
60.305     603.000
60.319     576.000
60.333     593.000
60.348     620.000
60.362     569.000
60.377     606.000
60.391     552.000
60.406     567.000
60.420     636.000
60.435     541.000
60.449     589.000
60.464     569.000
60.478     615.000
60.493     591.000
60.507     625.000
60.522     667.000
60.536     634.000
60.551     633.000
60.565     644.000
60.580     630.000
60.594     673.000
60.609     698.000
60.623     727.000
60.638     770.000
60.652     733.000
60.667     739.000
60.681     808.000
60.696     826.000
60.710     789.000
60.725     759.000
60.739     745.000
60.754     707.000
60.768     693.000
60.783     699.000
60.797     617.000
60.812     675.000
60.826     572.000
60.841     631.000
60.855     555.000
60.870     571.000
60.884     569.000
60.899     565.000
60.913     576.000
60.928     531.000
60.942     537.000
60.957     576.000
60.971     565.000
60.985     568.000
61.000     581.000
61.014     537.000
61.029     566.000
61.043     555.000
61.058     587.000
61.072     589.000
61.087     594.000
61.101     592.000
61.116     613.000
61.130     582.000
61.145     609.000
61.159     577.000
61.174     591.000
61.188     642.000
61.203     606.000
61.217     606.000
61.232     618.000
61.246     600.000
61.261     577.000
61.275     561.000
61.290     603.000
61.304     559.000
61.319     588.000
61.333     582.000
61.348     554.000
61.362     572.000
61.377     555.000
61.391     528.000
61.406     528.000
61.420     528.000
61.435     529.000
61.449     532.000
61.464     521.000
61.478     525.000
61.493     578.000
61.507     585.000
61.522     541.000
61.536     573.000
61.551     501.000
61.565     481.000
61.580     561.000
61.594     564.000
61.609     548.000
61.623     574.000
61.638     522.000
61.652     555.000
61.666     529.000
61.681     541.000
61.695     565.000
61.710     538.000
61.724     523.000
61.739     554.000
61.753     576.000
61.768     502.000
61.782     577.000
61.797     539.000
61.811     532.000
61.826     558.000
61.840     503.000
61.855     503.000
61.869     585.000
61.884     549.000
61.898     577.000
61.913     545.000
61.927     555.000
61.942     532.000
61.956     555.000
61.971     521.000
61.985     542.000
62.000     554.000
62.014     545.000
62.029     563.000
62.043     616.000
62.058     569.000
62.072     593.000
62.087     611.000
62.101     600.000
62.116     651.000
62.130     605.000
62.145     630.000
62.159     595.000
62.174     649.000
62.188     659.000
62.203     678.000
62.217     646.000
62.232     688.000
62.246     631.000
62.261     687.000
62.275     698.000
62.290     759.000
62.304     779.000
62.318     751.000
62.333     749.000
62.347     797.000
62.362     794.000
62.376     762.000
62.391     777.000
62.405     786.000
62.420     775.000
62.434     724.000
62.449     701.000
62.463     706.000
62.478     722.000
62.492     702.000
62.507     695.000
62.521     701.000
62.536     674.000
62.550     679.000
62.565     636.000
62.579     640.000
62.594     616.000
62.608     628.000
62.623     674.000
62.637     611.000
62.652     630.000
62.666     606.000
62.681     584.000
62.695     587.000
62.710     548.000
62.724     604.000
62.739     593.000
62.753     575.000
62.768     627.000
62.782     584.000
62.797     579.000
62.811     585.000
62.826     613.000
62.840     586.000
62.855     610.000
62.869     633.000
62.884     635.000
62.898     633.000
62.913     681.000
62.927     686.000
62.942     684.000
62.956     652.000
62.970     662.000
62.985     696.000
62.999     630.000
63.014     624.000
63.028     642.000
63.043     614.000
63.057     628.000
63.072     607.000
63.086     582.000
63.101     590.000
63.115     594.000
63.130     570.000
63.144     555.000
63.159     599.000
63.173     575.000
63.188     600.000
63.202     546.000
63.217     554.000
63.231     549.000
63.246     571.000
63.260     574.000
63.275     580.000
63.289     563.000
63.304     617.000
63.318     620.000
63.333     585.000
63.347     555.000
63.362     579.000
63.376     560.000
63.391     549.000
63.405     582.000
63.420     551.000
63.434     580.000
63.449     556.000
63.463     612.000
63.478     562.000
63.492     574.000
63.507     523.000
63.521     525.000
63.536     572.000
63.550     522.000
63.565     545.000
63.579     566.000
63.594     510.000
63.608     552.000
63.622     580.000
63.637     537.000
63.651     589.000
63.666     545.000
63.680     548.000
63.695     617.000
63.709     626.000
63.724     626.000
63.738     562.000
63.753     563.000
63.767     571.000
63.782     602.000
63.796     619.000
63.811     610.000
63.825     613.000
63.840     660.000
63.854     642.000
63.869     725.000
63.883     710.000
63.898     740.000
63.912     775.000
63.927     766.000
63.941     794.000
63.956     813.000
63.970     840.000
63.985     851.000
63.999     848.000
64.014     859.000
64.028     842.000
64.043     799.000
64.057     766.000
64.072     818.000
64.086     784.000
64.101     775.000
64.115     744.000
64.130     701.000
64.144     693.000
64.159     632.000
64.173     663.000
64.188     579.000
64.202     638.000
64.217     628.000
64.231     640.000
64.246     643.000
64.260     621.000
64.274     626.000
64.289     621.000
64.303     648.000
64.318     633.000
64.332     650.000
64.347     654.000
64.361     634.000
64.376     666.000
64.390     656.000
64.405     670.000
64.419     687.000
64.434     719.000
64.448     726.000
64.463     720.000
64.477     648.000
64.492     710.000
64.506     717.000
64.521     695.000
64.535     683.000
64.550     673.000
64.564     722.000
64.579     674.000
64.593     659.000
64.608     740.000
64.622     623.000
64.637     635.000
64.651     659.000
64.666     676.000
64.680     660.000
64.695     677.000
64.709     691.000
64.724     659.000
64.738     695.000
64.753     644.000
64.767     714.000
64.782     716.000
64.796     675.000
64.811     667.000
64.825     672.000
64.840     612.000
64.854     643.000
64.869     660.000
64.883     630.000
64.898     634.000
64.912     644.000
64.927     646.000
64.941     620.000
64.955     651.000
