 5.000   19313.000
 5.014   18989.000
 5.029   19192.000
 5.043   19270.000
 5.058   19047.000
 5.072   19054.000
 5.087   19037.000
 5.101   19019.000
 5.116   18905.000
 5.130   18881.000
 5.145   18930.000
 5.159   19167.000
 5.174   18933.000
 5.188   18670.000
 5.203   18790.000
 5.217   18607.000
 5.232   18513.000
 5.246   18765.000
 5.261   18839.000
 5.275   18586.000
 5.290   18588.000
 5.304   18413.000
 5.319   18539.000
 5.333   18639.000
 5.348   18501.000
 5.362   18390.000
 5.377   18522.000
 5.391   18530.000
 5.406   18310.000
 5.420   18200.000
 5.435   18228.000
 5.449   18232.000
 5.464   18173.000
 5.478   18406.000
 5.493   18187.000
 5.507   18189.000
 5.522   18217.000
 5.536   18255.000
 5.551   18118.000
 5.565   17871.000
 5.580   17875.000
 5.594   17797.000
 5.609   17736.000
 5.623   17974.000
 5.638   17853.000
 5.652   17797.000
 5.666   18166.000
 5.681   17880.000
 5.695   17934.000
 5.710   17640.000
 5.724   17983.000
 5.739   17976.000
 5.753   17618.000
 5.768   17934.000
 5.782   17499.000
 5.797   17422.000
 5.811   17581.000
 5.826   17536.000
 5.840   17423.000
 5.855   17613.000
 5.869   17563.000
 5.884   17546.000
 5.898   17513.000
 5.913   17609.000
 5.927   17315.000
 5.942   17532.000
 5.956   17420.000
 5.971   17228.000
 5.985   17335.000
 6.000   17090.000
 6.014   17139.000
 6.029   17049.000
 6.043   16848.000
 6.058   17011.000
 6.072   16819.000
 6.087   17079.000
 6.101   16895.000
 6.116   16874.000
 6.130   17139.000
 6.145   16871.000
 6.159   16892.000
 6.174   16699.000
 6.188   16880.000
 6.203   16717.000
 6.217   16987.000
 6.232   16663.000
 6.246   16782.000
 6.261   16611.000
 6.275   16297.000
 6.290   16393.000
 6.304   16560.000
 6.318   16467.000
 6.333   16637.000
 6.347   16557.000
 6.362   16543.000
 6.376   16461.000
 6.391   16516.000
 6.405   16385.000
 6.420   16431.000
 6.434   16396.000
 6.449   16144.000
 6.463   16215.000
 6.478   16129.000
 6.492   16354.000
 6.507   16210.000
 6.521   16219.000
 6.536   15975.000
 6.550   16094.000
 6.565   16160.000
 6.579   15970.000
 6.594   15995.000
 6.608   16035.000
 6.623   16037.000
 6.637   15921.000
 6.652   15954.000
 6.666   15916.000
 6.681   15763.000
 6.695   15585.000
 6.710   15814.000
 6.724   15484.000
 6.739   15751.000
 6.753   15575.000
 6.768   15744.000
 6.782   15499.000
 6.797   15394.000
 6.811   15363.000
 6.826   15593.000
 6.840   15472.000
 6.855   15321.000
 6.869   15292.000
 6.884   15304.000
 6.898   15526.000
 6.913   15392.000
 6.927   15347.000
 6.942   15212.000
 6.956   15275.000
 6.971   15187.000
 6.985   14993.000
 6.999   15008.000
 7.014   15288.000
 7.028   15167.000
 7.043   15055.000
 7.057   14925.000
 7.072   14869.000
 7.086   14772.000
 7.101   14838.000
 7.115   15041.000
 7.130   14958.000
 7.144   14881.000
 7.159   14966.000
 7.173   14876.000
 7.188   14737.000
 7.202   14690.000
 7.217   14692.000
 7.231   14659.000
 7.246   14828.000
 7.260   14630.000
 7.275   14608.000
 7.289   14317.000
 7.304   14361.000
 7.318   14536.000
 7.333   14359.000
 7.347   14597.000
 7.362   14268.000
 7.376   14145.000
 7.391   14255.000
 7.405   14319.000
 7.420   14223.000
 7.434   14075.000
 7.449   13952.000
 7.463   14151.000
 7.478   14233.000
 7.492   14203.000
 7.507   13976.000
 7.521   14068.000
 7.536   14021.000
 7.550   13699.000
 7.565   13871.000
 7.579   13737.000
 7.594   13812.000
 7.608   13782.000
 7.623   13800.000
 7.637   13538.000
 7.651   13625.000
 7.666   13498.000
 7.680   13560.000
 7.695   13658.000
 7.709   13474.000
 7.724   13358.000
 7.738   13417.000
 7.753   13638.000
 7.767   13421.000
 7.782   13279.000
 7.796   13245.000
 7.811   13226.000
 7.825   13278.000
 7.840   13290.000
 7.854   13323.000
 7.869   13141.000
 7.883   13004.000
 7.898   12986.000
 7.912   12989.000
 7.927   12920.000
 7.941   12977.000
 7.956   12896.000
 7.970   12815.000
 7.985   12909.000
 7.999   12635.000
 8.014   12676.000
 8.028   12593.000
 8.043   12747.000
 8.057   12825.000
 8.072   12524.000
 8.086   12491.000
 8.101   12663.000
 8.115   12445.000
 8.130   12454.000
 8.144   12284.000
 8.159   12297.000
 8.173   12461.000
 8.188   12232.000
 8.202   12338.000
 8.217   12165.000
 8.231   12159.000
 8.246   11969.000
 8.260   11920.000
 8.275   12168.000
 8.289   12094.000
 8.303   11889.000
 8.318   11789.000
 8.332   11923.000
 8.347   11785.000
 8.361   11826.000
 8.376   11790.000
 8.390   12037.000
 8.405   11830.000
 8.419   11730.000
 8.434   11769.000
 8.448   11665.000
 8.463   11743.000
 8.477   11721.000
 8.492   11675.000
 8.506   11722.000
 8.521   11585.000
 8.535   11493.000
 8.550   11429.000
 8.564   11312.000
 8.579   11444.000
 8.593   11326.000
 8.608   11379.000
 8.622   11107.000
 8.637   11238.000
 8.651   11242.000
 8.666   11257.000
 8.680   11295.000
 8.695   11166.000
 8.709   11351.000
 8.724   11016.000
 8.738   11112.000
 8.753   11107.000
 8.767   11063.000
 8.782   11014.000
 8.796   10880.000
 8.811   11103.000
 8.825   10971.000
 8.840   10931.000
 8.854   10902.000
 8.869   10738.000
 8.883   11082.000
 8.898   10830.000
 8.912   11019.000
 8.927   10723.000
 8.941   11003.000
 8.955   10827.000
 8.970   11270.000
 8.984   10963.000
 8.999   11104.000
 9.013   11137.000
 9.028   11201.000
 9.042   11590.000
 9.057   11379.000
 9.071   11593.000
 9.086   11773.000
 9.100   11908.000
 9.115   12329.000
 9.129   12577.000
 9.144   13183.000
 9.158   13650.000
 9.173   14298.000
 9.187   15116.000
 9.202   16035.000
 9.216   17551.000
 9.231   19676.000
 9.245   22371.000
 9.260   24395.000
 9.274   23855.000
 9.289   20288.000
 9.303   16127.000
 9.318   12940.000
 9.332   11499.000
 9.347   10773.000
 9.361   10566.000
 9.376   10364.000
 9.390   10327.000
 9.405   10070.000
 9.419   10212.000
 9.434   10314.000
 9.448   10133.000
 9.463   10014.000
 9.477   10222.000
 9.492    9971.000
 9.506   10002.000
 9.521    9993.000
 9.535    9820.000
 9.550    9691.000
 9.564    9926.000
 9.579    9872.000
 9.593    9687.000
 9.608    9881.000
 9.622    9823.000
 9.636    9938.000
 9.651    9769.000
 9.665    9846.000
 9.680   10005.000
 9.694    9774.000
 9.709    9881.000
 9.723    9703.000
 9.738    9679.000
 9.752    9811.000
 9.767    9667.000
 9.781    9721.000
 9.796    9819.000
 9.810    9666.000
 9.825    9717.000
 9.839    9890.000
 9.854    9589.000
 9.868    9901.000
 9.883    9828.000
 9.897    9766.000
 9.912   10042.000
 9.926    9831.000
 9.941    9876.000
 9.955   10151.000
 9.970   10170.000
 9.984   10317.000
 9.999   10380.000
10.013   10534.000
10.028   10939.000
10.042   11075.000
10.057   11263.000
10.071   11571.000
10.086   11991.000
10.100   12952.000
10.115   13817.000
10.129   15195.000
10.144   16593.000
10.158   16828.000
10.173   15314.000
10.187   13307.000
10.202   11639.000
10.216   10268.000
10.231    9711.000
10.245    9389.000
10.260    9361.000
10.274    9307.000
10.288    9504.000
10.303    9148.000
10.317    9251.000
10.332    9096.000
10.346    9086.000
10.361    9078.000
10.375    9023.000
10.390    9051.000
10.404    9330.000
10.419    9279.000
10.433    9072.000
10.448    9099.000
10.462    8981.000
10.477    9050.000
10.491    9098.000
10.506    9096.000
10.520    9003.000
10.535    9038.000
10.549    8947.000
10.564    8944.000
10.578    9035.000
10.593    8919.000
10.607    8865.000
10.622    8956.000
10.636    8772.000
10.651    9030.000
10.665    8827.000
10.680    8664.000
10.694    8739.000
10.709    8968.000
10.723    8863.000
10.738    8748.000
10.752    8786.000
10.767    8729.000
10.781    8688.000
10.796    8758.000
10.810    8694.000
10.825    8669.000
10.839    8756.000
10.854    8545.000
10.868    8583.000
10.883    8570.000
10.897    8557.000
10.912    8524.000
10.926    8705.000
10.940    8791.000
10.955    8641.000
10.969    8517.000
10.984    8656.000
10.998    8603.000
11.013    8536.000
11.027    8528.000
11.042    8521.000
11.056    8398.000
11.071    8438.000
11.085    8579.000
11.100    8420.000
11.114    8378.000
11.129    8351.000
11.143    8450.000
11.158    8544.000
11.172    8569.000
11.187    8404.000
11.201    8691.000
11.216    8264.000
11.230    8333.000
11.245    8274.000
11.259    8449.000
11.274    8266.000
11.288    8404.000
11.303    8316.000
11.317    8507.000
11.332    8123.000
11.346    8314.000
11.361    8200.000
11.375    8233.000
11.390    8338.000
11.404    8241.000
11.419    8235.000
11.433    8254.000
11.448    8240.000
11.462    8176.000
11.477    8157.000
11.491    8171.000
11.506    8321.000
11.520    8105.000
11.535    8197.000
11.549    8062.000
11.564    8011.000
11.578    8149.000
11.592    8290.000
11.607    8191.000
11.621    8098.000
11.636    8160.000
11.650    8003.000
11.665    8069.000
11.679    7983.000
11.694    8102.000
11.708    8105.000
11.723    8010.000
11.737    8045.000
11.752    8130.000
11.766    8321.000
11.781    8049.000
11.795    7917.000
11.810    8168.000
11.824    7892.000
11.839    7892.000
11.853    7956.000
11.868    8206.000
11.882    8089.000
11.897    8025.000
11.911    8138.000
11.926    8047.000
11.940    8264.000
11.955    8040.000
11.969    8131.000
11.984    8255.000
11.998    8260.000
12.013    8318.000
12.027    8658.000
12.042    8570.000
12.056    8785.000
12.071    9022.000
12.085    9194.000
12.100    9519.000
12.114    9969.000
12.129   10633.000
12.143   10916.000
12.158   11636.000
12.172   12612.000
12.187   13840.000
12.201   15606.000
12.216   18320.000
12.230   21624.000
12.245   26231.000
12.259   32367.000
12.273   40130.000
12.288   44982.000
12.302   43574.000
12.317   34956.000
12.331   24905.000
12.346   16736.000
12.360   12168.000
12.375    9762.000
12.389    9122.000
12.404    8437.000
12.418    8207.000
12.433    8211.000
12.447    7825.000
12.462    7882.000
12.476    7843.000
12.491    7926.000
12.505    7699.000
12.520    7855.000
12.534    7497.000
12.549    7604.000
12.563    7547.000
12.578    7645.000
12.592    7638.000
12.607    7620.000
12.621    7614.000
12.636    7632.000
12.650    7361.000
12.665    7560.000
12.679    7380.000
12.694    7570.000
12.708    7442.000
12.723    7497.000
12.737    7488.000
12.752    7501.000
12.766    7322.000
12.781    7313.000
12.795    7477.000
12.810    7256.000
12.824    7301.000
12.839    7376.000
12.853    7162.000
12.868    7390.000
12.882    7181.000
12.897    7358.000
12.911    7491.000
12.925    7261.000
12.940    7231.000
12.954    7266.000
12.969    7314.000
12.983    7275.000
12.998    7307.000
13.012    7243.000
13.027    7077.000
13.041    7237.000
13.056    7242.000
13.070    7150.000
13.085    7223.000
13.099    7002.000
13.114    7109.000
13.128    7007.000
13.143    7221.000
13.157    7059.000
13.172    7039.000
13.186    7204.000
13.201    6953.000
13.215    7253.000
13.230    7033.000
13.244    7077.000
13.259    6926.000
13.273    7241.000
13.288    7041.000
13.302    6996.000
13.317    6967.000
13.331    6994.000
13.346    7130.000
13.360    7065.000
13.375    7127.000
13.389    7050.000
13.404    7009.000
13.418    6946.000
13.433    6955.000
13.447    7007.000
13.462    6944.000
13.476    6889.000
13.491    6898.000
13.505    6896.000
13.520    7003.000
13.534    6914.000
13.549    6852.000
13.563    6874.000
13.577    6820.000
13.592    6944.000
13.606    6756.000
13.621    6813.000
13.635    6862.000
13.650    6812.000
13.664    7004.000
13.679    6646.000
13.693    6691.000
13.708    6862.000
13.722    6799.000
13.737    6800.000
13.751    6721.000
13.766    6941.000
13.780    6817.000
13.795    6707.000
13.809    6835.000
13.824    6707.000
13.838    6653.000
13.853    6703.000
13.867    6778.000
13.882    6701.000
13.896    6889.000
13.911    6688.000
13.925    6579.000
13.940    6739.000
13.954    6714.000
13.969    6789.000
13.983    6657.000
13.998    6742.000
14.012    6742.000
14.027    6661.000
14.041    6742.000
14.056    6633.000
14.070    6546.000
14.085    6618.000
14.099    6805.000
14.114    6629.000
14.128    6671.000
14.143    6696.000
14.157    6630.000
14.172    6646.000
14.186    6505.000
14.201    6610.000
14.215    6522.000
14.229    6706.000
14.244    6610.000
14.258    6670.000
14.273    6469.000
14.287    6521.000
14.302    6631.000
14.316    6421.000
14.331    6517.000
14.345    6568.000
14.360    6690.000
14.374    6509.000
14.389    6589.000
14.403    6449.000
14.418    6468.000
14.432    6509.000
14.447    6465.000
14.461    6497.000
14.476    6363.000
14.490    6470.000
14.505    6381.000
14.519    6484.000
14.534    6484.000
14.548    6598.000
14.563    6569.000
14.577    6595.000
14.592    6455.000
14.606    6553.000
14.621    6319.000
14.635    6391.000
14.650    6435.000
14.664    6426.000
14.679    6388.000
14.693    6288.000
14.708    6338.000
14.722    6437.000
14.737    6333.000
14.751    6398.000
14.766    6410.000
14.780    6563.000
14.795    6523.000
14.809    6338.000
14.824    6306.000
14.838    6555.000
14.853    6488.000
14.867    6340.000
14.881    6480.000
14.896    6382.000
14.910    6433.000
14.925    6525.000
14.939    6596.000
14.954    6471.000
14.968    6794.000
14.983    6895.000
14.997    7058.000
15.012    7290.000
15.026    7759.000
15.041    8112.000
15.055    9056.000
15.070    9805.000
15.084   10659.000
15.099   10541.000
15.113    9660.000
15.128    8326.000
15.142    7286.000
15.157    6682.000
15.171    6432.000
15.186    6465.000
15.200    6213.000
15.215    6174.000
15.229    6158.000
15.244    6367.000
15.258    6384.000
15.273    6192.000
15.287    6326.000
15.302    6281.000
15.316    6145.000
15.331    6272.000
15.345    6174.000
15.360    6170.000
15.374    6195.000
15.389    6302.000
15.403    6277.000
15.418    6301.000
15.432    6387.000
15.447    6093.000
15.461    6213.000
15.476    6208.000
15.490    6181.000
15.505    6243.000
15.519    6151.000
15.534    6052.000
15.548    6079.000
15.562    6199.000
15.577    6216.000
15.591    6033.000
15.606    6186.000
15.620    6167.000
15.635    5984.000
15.649    6129.000
15.664    6156.000
15.678    6093.000
15.693    6158.000
15.707    5989.000
15.722    6133.000
15.736    6127.000
15.751    6240.000
15.765    6076.000
15.780    6043.000
15.794    6095.000
15.809    5933.000
15.823    5982.000
15.838    6115.000
15.852    6051.000
15.867    6071.000
15.881    6020.000
15.896    6146.000
15.910    5947.000
15.925    6198.000
15.939    6086.000
15.954    5896.000
15.968    6031.000
15.983    5871.000
15.997    6074.000
16.012    6041.000
16.026    5833.000
16.041    6012.000
16.055    6015.000
16.070    6001.000
16.084    6055.000
16.099    5976.000
16.113    6048.000
16.128    6132.000
16.142    5905.000
16.157    6048.000
16.171    5973.000
16.186    6006.000
16.200    6031.000
16.214    5994.000
16.229    5987.000
16.243    5891.000
16.258    6120.000
16.272    6027.000
16.287    5957.000
16.301    5952.000
16.316    5926.000
16.330    5980.000
16.345    5997.000
16.359    5828.000
16.374    6065.000
16.388    5913.000
16.403    5950.000
16.417    5916.000
16.432    5904.000
16.446    5700.000
16.461    5986.000
16.475    5969.000
16.490    6027.000
16.504    6036.000
16.519    5889.000
16.533    5895.000
16.548    6033.000
16.562    6052.000
16.577    5916.000
16.591    5831.000
16.606    5992.000
16.620    5782.000
16.635    5975.000
16.649    5984.000
16.664    6097.000
16.678    6057.000
16.693    5910.000
16.707    5924.000
16.722    5951.000
16.736    6117.000
16.751    6082.000
16.765    6064.000
16.780    5938.000
16.794    6152.000
16.809    6331.000
16.823    6218.000
16.838    6269.000
16.852    6488.000
16.866    6517.000
16.881    6701.000
16.895    7091.000
16.910    7645.000
16.924    8137.000
16.939    8969.000
16.953   10096.000
16.968   11816.000
16.982   14480.000
16.997   18322.000
17.011   20915.000
17.026   21556.000
17.040   18907.000
17.055   14562.000
17.069   10757.000
17.084    8230.000
17.098    6958.000
17.113    6514.000
17.127    6220.000
17.142    6089.000
17.156    5924.000
17.171    5950.000
17.185    6015.000
17.200    5816.000
17.214    5974.000
17.229    5850.000
17.243    5964.000
17.258    5893.000
17.272    5887.000
17.287    5861.000
17.301    5946.000
17.316    5849.000
17.330    5890.000
17.345    5758.000
17.359    5753.000
17.374    5815.000
17.388    5833.000
17.403    5805.000
17.417    5723.000
17.432    5890.000
17.446    5775.000
17.461    5807.000
17.475    5851.000
17.490    5829.000
17.504    5748.000
17.518    5895.000
17.533    5725.000
17.547    5846.000
17.562    5756.000
17.576    5878.000
17.591    5931.000
17.605    5755.000
17.620    5712.000
17.634    5747.000
17.649    5714.000
17.663    5740.000
17.678    5705.000
17.692    5772.000
17.707    5754.000
17.721    5834.000
17.736    5784.000
17.750    5755.000
17.765    5896.000
17.779    5764.000
17.794    5757.000
17.808    5646.000
17.823    5796.000
17.837    5646.000
17.852    5827.000
17.866    5937.000
17.881    5795.000
17.895    5743.000
17.910    5921.000
17.924    5677.000
17.939    5726.000
17.953    5764.000
17.968    5747.000
17.982    5804.000
17.997    5968.000
18.011    5768.000
18.026    5846.000
18.040    5750.000
18.055    5848.000
18.069    5954.000
18.084    5837.000
18.098    5982.000
18.113    5723.000
18.127    5829.000
18.142    5874.000
18.156    5886.000
18.171    5980.000
18.185    5836.000
18.199    5888.000
18.214    5942.000
18.228    5797.000
18.243    5905.000
18.257    5890.000
18.272    5768.000
18.286    5996.000
18.301    5893.000
18.315    6126.000
18.330    5837.000
18.344    6025.000
18.359    5981.000
18.373    6040.000
18.388    6083.000
18.402    6126.000
18.417    6098.000
18.431    6174.000
18.446    6185.000
18.460    6256.000
18.475    6407.000
18.489    6471.000
18.504    6656.000
18.518    6901.000
18.533    7281.000
18.547    7797.000
18.562    8413.000
18.576    9023.000
18.591    9178.000
18.605    9299.000
18.620    8887.000
18.634    8596.000
18.649    8219.000
18.663    8444.000
18.678    9071.000
18.692    9755.000
18.707   10524.000
18.721   11911.000
18.736   13833.000
18.750   16816.000
18.765   20699.000
18.779   26652.000
18.794   36046.000
18.808   48631.000
18.823   63755.000
18.837   75680.000
18.851   76021.000
18.866   63105.000
18.880   44608.000
18.895   28390.000
18.909   17888.000
18.924   11859.000
18.938    9281.000
18.953    8307.000
18.967    7630.000
18.982    7417.000
18.996    7375.000
19.011    7144.000
19.025    7142.000
19.040    7094.000
19.054    7228.000
19.069    7362.000
19.083    7410.000
19.098    7580.000
19.112    8068.000
19.127    8471.000
19.141    9101.000
19.156    9862.000
19.170   10946.000
19.185   12380.000
19.199   14382.000
19.214   17588.000
19.228   21985.000
19.243   28484.000
19.257   38265.000
19.272   52978.000
19.286   70028.000
19.301   84291.000
19.315   89612.000
19.330   82703.000
19.344   68260.000
19.359   53255.000
19.373   40750.000
19.388   30460.000
19.402   21877.000
19.417   15509.000
19.431   11129.000
19.446    9237.000
19.460    8041.000
19.475    7377.000
19.489    7071.000
19.503    6890.000
19.518    6673.000
19.532    6636.000
19.547    6431.000
19.561    6499.000
19.576    6396.000
19.590    6484.000
19.605    6297.000
19.619    6295.000
19.634    6280.000
19.648    6257.000
19.663    6220.000
19.677    6111.000
19.692    6097.000
19.706    6073.000
19.721    6051.000
19.735    5897.000
19.750    6151.000
19.764    6124.000
19.779    5946.000
19.793    5908.000
19.808    6014.000
19.822    5975.000
19.837    5854.000
19.851    5936.000
19.866    5991.000
19.880    5962.000
19.895    5981.000
19.909    5905.000
19.924    5975.000
19.938    5903.000
19.953    5766.000
19.967    5939.000
19.982    5874.000
19.996    5869.000
20.011    5745.000
20.025    5913.000
20.040    5835.000
20.054    5909.000
20.069    5839.000
20.083    5931.000
20.098    5866.000
20.112    6027.000
20.127    5992.000
20.141    5873.000
20.155    5986.000
20.170    5849.000
20.184    5986.000
20.199    5959.000
20.213    6047.000
20.228    6126.000
20.242    6250.000
20.257    6378.000
20.271    6468.000
20.286    6595.000
20.300    6907.000
20.315    7453.000
20.329    7855.000
20.344    8440.000
20.358    8395.000
20.373    8409.000
20.387    8308.000
20.402    8256.000
20.416    8335.000
20.431    8885.000
20.445    9475.000
20.460   10936.000
20.474   12903.000
20.489   15795.000
20.503   19939.000
20.518   23491.000
20.532   25064.000
20.547   22688.000
20.561   17983.000
20.576   13519.000
20.590   10310.000
20.605    8983.000
20.619    8212.000
20.634    8220.000
20.648    8008.000
20.663    7514.000
20.677    7058.000
20.692    6420.000
20.706    6405.000
20.721    5876.000
20.735    6028.000
20.750    6057.000
20.764    5855.000
20.779    5810.000
20.793    5822.000
20.807    5759.000
20.822    5850.000
20.836    5780.000
20.851    5800.000
20.865    5812.000
20.880    5881.000
20.894    5778.000
20.909    5720.000
20.923    5599.000
20.938    5660.000
20.952    5736.000
20.967    5705.000
20.981    5738.000
20.996    5676.000
21.010    5703.000
21.025    5811.000
21.039    5673.000
21.054    5692.000
21.068    5611.000
21.083    5703.000
21.097    5815.000
21.112    5702.000
21.126    5670.000
21.141    5669.000
21.155    5730.000
21.170    5644.000
21.184    5593.000
21.199    5676.000
21.213    5646.000
21.228    5792.000
21.242    5578.000
21.257    5670.000
21.271    5819.000
21.286    5675.000
21.300    5607.000
21.315    5647.000
21.329    5757.000
21.344    5517.000
21.358    5588.000
21.373    5674.000
21.387    5700.000
21.402    5691.000
21.416    5712.000
21.431    5534.000
21.445    5636.000
21.460    5643.000
21.474    5559.000
21.488    5601.000
21.503    5717.000
21.517    5804.000
21.532    5616.000
21.546    5675.000
21.561    5694.000
21.575    5567.000
21.590    5579.000
21.604    5530.000
21.619    5665.000
21.633    5660.000
21.648    5560.000
21.662    5590.000
21.677    5467.000
21.691    5714.000
21.706    5502.000
21.720    5483.000
21.735    5561.000
21.749    5509.000
21.764    5506.000
21.778    5512.000
21.793    5500.000
21.807    5534.000
21.822    5574.000
21.836    5564.000
21.851    5510.000
21.865    5536.000
21.880    5411.000
21.894    5566.000
21.909    5615.000
21.923    5567.000
21.938    5598.000
21.952    5472.000
21.967    5579.000
21.981    5485.000
21.996    5489.000
22.010    5680.000
22.025    5570.000
22.039    5545.000
22.054    5497.000
22.068    5523.000
22.083    5669.000
22.097    5534.000
22.112    5597.000
22.126    5776.000
22.140    5693.000
22.155    5868.000
22.169    5844.000
22.184    5982.000
22.198    5992.000
22.213    6366.000
22.227    6584.000
22.242    7044.000
22.256    7722.000
22.271    8684.000
22.285   10272.000
22.300   12271.000
22.314   14827.000
22.329   17223.000
22.343   17929.000
22.358   16937.000
22.372   14092.000
22.387   10824.000
22.401    8515.000
22.416    6988.000
22.430    6321.000
22.445    6186.000
22.459    6006.000
22.474    6119.000
22.488    6234.000
22.503    6233.000
22.517    6454.000
22.532    6975.000
22.546    7680.000
22.561    8760.000
22.575   10377.000
22.590   12828.000
22.604   15056.000
22.619   16245.000
22.633   15394.000
22.648   13255.000
22.662   10579.000
22.677    8298.000
22.691    6785.000
22.706    6189.000
22.720    5905.000
22.735    5571.000
22.749    5611.000
22.764    5559.000
22.778    5577.000
22.792    5433.000
22.807    5518.000
22.821    5638.000
22.836    5517.000
22.850    5634.000
22.865    5821.000
22.879    5678.000
22.894    5975.000
22.908    6189.000
22.923    6689.000
22.937    7346.000
22.952    8107.000
22.966    9137.000
22.981    9827.000
22.995    9880.000
23.010    9398.000
23.024    8105.000
23.039    6865.000
23.053    6070.000
23.068    5681.000
23.082    5416.000
23.097    5330.000
23.111    5330.000
23.126    5348.000
23.140    5311.000
23.155    5189.000
23.169    5347.000
23.184    5154.000
23.198    5084.000
23.213    5123.000
23.227    5056.000
23.242    5051.000
23.256    5042.000
23.271    5228.000
23.285    5109.000
23.300    5151.000
23.314    5005.000
23.329    5032.000
23.343    5190.000
23.358    5177.000
23.372    5009.000
23.387    4848.000
23.401    5080.000
23.416    5083.000
23.430    5013.000
23.444    4939.000
23.459    4979.000
23.473    5008.000
23.488    5020.000
23.502    5027.000
23.517    5015.000
23.531    4977.000
23.546    5029.000
23.560    4975.000
23.575    4909.000
23.589    4895.000
23.604    4993.000
23.618    4933.000
23.633    5054.000
23.647    4998.000
23.662    4861.000
23.676    4994.000
23.691    4861.000
23.705    4882.000
23.720    4957.000
23.734    4874.000
23.749    5002.000
23.763    4988.000
23.778    5045.000
23.792    5059.000
23.807    5038.000
23.821    5069.000
23.836    4916.000
23.850    5070.000
23.865    5212.000
23.879    5163.000
23.894    5117.000
23.908    5230.000
23.923    5358.000
23.937    5461.000
23.952    5602.000
23.966    6047.000
23.981    6344.000
23.995    6883.000
24.010    7447.000
24.024    8858.000
24.039   10604.000
24.053   13080.000
24.068   17125.000
24.082   22849.000
24.097   28836.000
24.111   33013.000
24.125   32719.000
24.140   27856.000
24.154   20902.000
24.169   14463.000
24.183   10052.000
24.198    7543.000
24.212    6322.000
24.227    5641.000
24.241    5435.000
24.256    5279.000
24.270    5051.000
24.285    5125.000
24.299    5080.000
24.314    5083.000
24.328    4870.000
24.343    4865.000
24.357    4903.000
24.372    4877.000
24.386    4848.000
24.401    4871.000
24.415    4860.000
24.430    4834.000
24.444    4813.000
24.459    4746.000
24.473    4636.000
24.488    4796.000
24.502    4789.000
24.517    4860.000
24.531    4883.000
24.546    4796.000
24.560    4948.000
24.575    5062.000
24.589    5279.000
24.604    5563.000
24.618    5958.000
24.633    6384.000
24.647    6864.000
24.662    8184.000
24.676   10097.000
24.691   12407.000
24.705   15526.000
24.720   18282.000
24.734   19771.000
24.749   18761.000
24.763   16205.000
24.777   12402.000
24.792    9619.000
24.806    7462.000
24.821    6564.000
24.835    6238.000
24.850    6163.000
24.864    6319.000
24.879    6274.000
24.893    6096.000
24.908    5626.000
24.922    5454.000
24.937    5318.000
24.951    5114.000
24.966    5244.000
24.980    5227.000
24.995    5645.000
25.009    6150.000
25.024    7139.000
25.038    8407.000
25.053    9883.000
25.067   10924.000
25.082   11316.000
25.096   10365.000
25.111    8663.000
25.125    7067.000
25.140    5997.000
25.154    5170.000
25.169    4664.000
25.183    4590.000
25.198    4399.000
25.212    4435.000
25.227    4402.000
25.241    4233.000
25.256    4352.000
25.270    4374.000
25.285    4335.000
25.299    4422.000
25.314    4347.000
25.328    4332.000
25.343    4441.000
25.357    4547.000
25.372    4669.000
25.386    4742.000
25.401    5013.000
25.415    5221.000
25.429    5278.000
25.444    5103.000
25.458    4975.000
25.473    4818.000
25.487    4443.000
25.502    4414.000
25.516    4287.000
25.531    4257.000
25.545    4147.000
25.560    4226.000
25.574    4159.000
25.589    4155.000
25.603    4291.000
25.618    4099.000
25.632    4124.000
25.647    4122.000
25.661    4127.000
25.676    4215.000
25.690    4235.000
25.705    4314.000
25.719    4241.000
25.734    4081.000
25.748    4238.000
25.763    4224.000
25.777    4372.000
25.792    4372.000
25.806    4592.000
25.821    4708.000
25.835    4905.000
25.850    5330.000
25.864    5729.000
25.879    6649.000
25.893    7944.000
25.908    9729.000
25.922   11176.000
25.937   11654.000
25.951   11273.000
25.966    9739.000
25.980    8109.000
25.995    6446.000
26.009    5238.000
26.024    5003.000
26.038    4456.000
26.053    4460.000
26.067    4503.000
26.081    4290.000
26.096    4441.000
26.110    4584.000
26.125    4516.000
26.139    4891.000
26.154    5149.000
26.168    5779.000
26.183    6341.000
26.197    7689.000
26.212    9637.000
26.226   12213.000
26.241   15285.000
26.255   17339.000
26.270   17955.000
26.284   16017.000
26.299   13275.000
26.313   10041.000
26.328    7476.000
26.342    6203.000
26.357    5344.000
26.371    5296.000
26.386    5586.000
26.400    5962.000
26.415    6966.000
26.429    8074.000
26.444    8987.000
26.458    9226.000
26.473    8931.000
26.487    7631.000
26.502    6478.000
26.516    5444.000
26.531    4636.000
26.545    4251.000
26.560    4056.000
26.574    4024.000
26.589    3928.000
26.603    3860.000
26.618    3808.000
26.632    3829.000
26.647    3787.000
26.661    3782.000
26.676    3786.000
26.690    3762.000
26.705    3626.000
26.719    3720.000
26.733    3767.000
26.748    3644.000
26.762    3661.000
26.777    3578.000
26.791    3705.000
26.806    3780.000
26.820    3675.000
26.835    3708.000
26.849    3571.000
26.864    3816.000
26.878    3655.000
26.893    3581.000
26.907    3559.000
26.922    3554.000
26.936    3553.000
26.951    3614.000
26.965    3658.000
26.980    3693.000
26.994    3532.000
27.009    3593.000
27.023    3631.000
27.038    3537.000
27.052    3576.000
27.067    3542.000
27.081    3624.000
27.096    3664.000
27.110    3547.000
27.125    3578.000
27.139    3491.000
27.154    3563.000
27.168    3500.000
27.183    3665.000
27.197    3523.000
27.212    3571.000
27.226    3430.000
27.241    3622.000
27.255    3484.000
27.270    3404.000
27.284    3448.000
27.299    3493.000
27.313    3604.000
27.328    3592.000
27.342    3442.000
27.357    3473.000
27.371    3525.000
27.386    3532.000
27.400    3552.000
27.414    3637.000
27.429    3529.000
27.443    3459.000
27.458    3475.000
27.472    3430.000
27.487    3521.000
27.501    3446.000
27.516    3434.000
27.530    3553.000
27.545    3378.000
27.559    3436.000
27.574    3429.000
27.588    3397.000
27.603    3584.000
27.617    3745.000
27.632    3688.000
27.646    3714.000
27.661    3815.000
27.675    4111.000
27.690    4286.000
27.704    4751.000
27.719    5318.000
27.733    6486.000
27.748    8120.000
27.762    9550.000
27.777   10928.000
27.791   11382.000
27.806   10972.000
27.820   10421.000
27.835    9575.000
27.849    8587.000
27.864    7501.000
27.878    6429.000
27.893    5433.000
27.907    4492.000
27.922    3915.000
27.936    3782.000
27.951    3574.000
27.965    3537.000
27.980    3504.000
27.994    3513.000
28.009    3527.000
28.023    3649.000
28.038    3739.000
28.052    3702.000
28.066    3655.000
28.081    3645.000
28.095    3436.000
28.110    3435.000
28.124    3285.000
28.139    3276.000
28.153    3266.000
28.168    3238.000
28.182    3275.000
28.197    3242.000
28.211    3392.000
28.226    3255.000
28.240    3278.000
28.255    3429.000
28.269    3192.000
28.284    3291.000
28.298    3483.000
28.313    3592.000
28.327    3603.000
28.342    3656.000
28.356    3659.000
28.371    3812.000
28.385    3655.000
28.400    3556.000
28.414    3444.000
28.429    3348.000
28.443    3300.000
28.458    3234.000
28.472    3272.000
28.487    3258.000
28.501    3321.000
28.516    3446.000
28.530    3607.000
28.545    3833.000
28.559    4126.000
28.574    4628.000
28.588    5112.000
28.603    5556.000
28.617    5636.000
28.632    5389.000
28.646    4971.000
28.661    4360.000
28.675    3806.000
28.690    3425.000
28.704    3334.000
28.718    3242.000
28.733    3131.000
28.747    3226.000
28.762    3229.000
28.776    3096.000
28.791    3123.000
28.805    2995.000
28.820    3014.000
28.834    3053.000
28.849    3024.000
28.863    3080.000
28.878    2980.000
28.892    3040.000
28.907    3021.000
28.921    3095.000
28.936    3047.000
28.950    2947.000
28.965    2898.000
28.979    3090.000
28.994    3028.000
29.008    3053.000
29.023    2890.000
29.037    3011.000
29.052    2994.000
29.066    3000.000
29.081    3037.000
29.095    2976.000
29.110    2884.000
29.124    2896.000
29.139    2948.000
29.153    3046.000
29.168    2996.000
29.182    2963.000
29.197    2922.000
29.211    3005.000
29.226    3018.000
29.240    3074.000
29.255    3038.000
29.269    3026.000
29.284    3020.000
29.298    3096.000
29.313    2980.000
29.327    2936.000
29.342    3025.000
29.356    3015.000
29.370    2947.000
29.385    2921.000
29.399    3011.000
29.414    2931.000
29.428    2890.000
29.443    2873.000
29.457    2882.000
29.472    2968.000
29.486    2882.000
29.501    2984.000
29.515    2929.000
29.530    2946.000
29.544    2895.000
29.559    2920.000
29.573    2967.000
29.588    2961.000
29.602    2883.000
29.617    2990.000
29.631    2963.000
29.646    2910.000
29.660    3040.000
29.675    3020.000
29.689    3131.000
29.704    3151.000
29.718    3406.000
29.733    3511.000
29.747    3922.000
29.762    4429.000
29.776    5260.000
29.791    5871.000
29.805    6178.000
29.820    6385.000
29.834    5903.000
29.849    5108.000
29.863    4456.000
29.878    3690.000
29.892    3290.000
29.907    3109.000
29.921    3033.000
29.936    3023.000
29.950    2951.000
29.965    2886.000
29.979    2763.000
29.994    2959.000
30.008    2840.000
30.023    2825.000
30.037    2785.000
30.051    2836.000
30.066    2890.000
30.080    2938.000
30.095    2859.000
30.109    2890.000
30.124    2779.000
30.138    2931.000
30.153    2963.000
30.167    2857.000
30.182    2974.000
30.196    2973.000
30.211    3064.000
30.225    3284.000
30.240    3516.000
30.254    3797.000
30.269    4198.000
30.283    4897.000
30.298    5420.000
30.312    5686.000
30.327    5889.000
30.341    5527.000
30.356    5111.000
30.370    4716.000
30.385    4479.000
30.399    4798.000
30.414    5630.000
30.428    6574.000
30.443    7641.000
30.457    8162.000
30.472    7921.000
30.486    6992.000
30.501    5717.000
30.515    4416.000
30.530    3778.000
30.544    3197.000
30.559    3075.000
30.573    2858.000
30.588    2837.000
30.602    2882.000
30.617    2832.000
30.631    2850.000
30.646    2785.000
30.660    2760.000
30.675    2826.000
30.689    2900.000
30.703    2813.000
30.718    2910.000
30.732    2962.000
30.747    3048.000
30.761    3208.000
30.776    3360.000
30.790    3479.000
30.805    3606.000
30.819    3372.000
30.834    3290.000
30.848    3089.000
30.863    2968.000
30.877    2863.000
30.892    2831.000
30.906    2805.000
30.921    2636.000
30.935    2634.000
30.950    2766.000
30.964    2784.000
30.979    2736.000
30.993    2705.000
31.008    2701.000
31.022    2684.000
31.037    2766.000
31.051    2700.000
31.066    2795.000
31.080    2618.000
31.095    2679.000
31.109    2722.000
31.124    2743.000
31.138    2737.000
31.153    2801.000
31.167    2889.000
31.182    3056.000
31.196    3306.000
31.211    3676.000
31.225    4167.000
31.240    5041.000
31.254    6079.000
31.269    7406.000
31.283    8225.000
31.298    8413.000
31.312    7910.000
31.327    6851.000
31.341    5755.000
31.355    4377.000
31.370    3611.000
31.384    3170.000
31.399    2943.000
31.413    2833.000
31.428    2805.000
31.442    2661.000
31.457    2659.000
31.471    2792.000
31.486    2692.000
31.500    2675.000
31.515    2608.000
31.529    2637.000
31.544    2621.000
31.558    2683.000
31.573    2702.000
31.587    2749.000
31.602    2785.000
31.616    2828.000
31.631    2735.000
31.645    2841.000
31.660    3000.000
31.674    3203.000
31.689    3448.000
31.703    3915.000
31.718    4484.000
31.732    5590.000
31.747    6909.000
31.761    8282.000
31.776    9087.000
31.790    9467.000
31.805    8842.000
31.819    7897.000
31.834    6703.000
31.848    5491.000
31.863    4536.000
31.877    3935.000
31.892    3530.000
31.906    3230.000
31.921    3266.000
31.935    3107.000
31.950    3295.000
31.964    3527.000
31.979    4233.000
31.993    5020.000
32.007    5826.000
32.022    6311.000
32.036    6567.000
32.051    6265.000
32.065    5728.000
32.080    4759.000
32.094    3786.000
32.109    3357.000
32.123    3017.000
32.138    2848.000
32.152    2766.000
32.167    2786.000
32.181    2689.000
32.196    2642.000
32.210    2723.000
32.225    2773.000
32.239    2755.000
32.254    2878.000
32.268    3001.000
32.283    3046.000
32.297    3233.000
32.312    3492.000
32.326    3797.000
32.341    4587.000
32.355    5668.000
32.370    7198.000
32.384    9846.000
32.399   12576.000
32.413   14725.000
32.428   15446.000
32.442   14833.000
32.457   13187.000
32.471   10741.000
32.486    8264.000
32.500    6068.000
32.515    4609.000
32.529    3856.000
32.544    3471.000
32.558    3257.000
32.573    3300.000
32.587    3449.000
32.602    3628.000
32.616    4213.000
32.631    4667.000
32.645    5466.000
32.660    6099.000
32.674    6776.000
32.688    7191.000
32.703    7277.000
32.717    7127.000
32.732    6205.000
32.746    5302.000
32.761    4439.000
32.775    3716.000
32.790    3256.000
32.804    2897.000
32.819    2737.000
32.833    2697.000
32.848    2509.000
32.862    2517.000
32.877    2656.000
32.891    2498.000
32.906    2442.000
32.920    2471.000
32.935    2521.000
32.949    2448.000
32.964    2490.000
32.978    2517.000
32.993    2565.000
33.007    2441.000
33.022    2565.000
33.036    2726.000
33.051    2776.000
33.065    2994.000
33.080    3130.000
33.094    3191.000
33.109    3224.000
33.123    3168.000
33.138    3008.000
33.152    2747.000
33.167    2604.000
33.181    2571.000
33.196    2390.000
33.210    2317.000
33.225    2347.000
33.239    2350.000
33.254    2407.000
33.268    2370.000
33.283    2325.000
33.297    2322.000
33.312    2420.000
33.326    2221.000
33.340    2347.000
33.355    2254.000
33.369    2356.000
33.384    2356.000
33.398    2311.000
33.413    2399.000
33.427    2458.000
33.442    2541.000
33.456    2400.000
33.471    2350.000
33.485    2405.000
33.500    2331.000
33.514    2214.000
33.529    2364.000
33.543    2297.000
33.558    2381.000
33.572    2311.000
33.587    2398.000
33.601    2304.000
33.616    2304.000
33.630    2279.000
33.645    2232.000
33.659    2287.000
33.674    2231.000
33.688    2233.000
33.703    2347.000
33.717    2317.000
33.732    2257.000
33.746    2211.000
33.761    2244.000
33.775    2264.000
33.790    2291.000
33.804    2281.000
33.819    2292.000
33.833    2322.000
33.848    2344.000
33.862    2374.000
33.877    2544.000
33.891    2376.000
33.906    2573.000
33.920    2657.000
33.935    2815.000
33.949    2816.000
33.964    3356.000
33.978    3925.000
33.992    5013.000
34.007    6084.000
34.021    7553.000
34.036    8729.000
34.050    9407.000
34.065    8958.000
34.079    7618.000
34.094    6065.000
34.108    4891.000
34.123    3578.000
34.137    3148.000
34.152    2740.000
34.166    2667.000
34.181    2513.000
34.195    2559.000
34.210    2379.000
34.224    2384.000
34.239    2309.000
34.253    2428.000
34.268    2358.000
34.282    2315.000
34.297    2419.000
34.311    2359.000
34.326    2356.000
34.340    2407.000
34.355    2507.000
34.369    2702.000
34.384    2932.000
34.398    3151.000
34.413    3457.000
34.427    3884.000
34.442    4163.000
34.456    4216.000
34.471    4521.000
34.485    4560.000
34.500    4737.000
34.514    4936.000
34.529    4950.000
34.543    5136.000
34.558    4914.000
34.572    4902.000
34.587    4786.000
34.601    4997.000
34.616    5364.000
34.630    6222.000
34.644    6832.000
34.659    7303.000
34.673    7723.000
34.688    7748.000
34.702    7902.000
34.717    8089.000
34.731    8129.000
34.746    7768.000
34.760    7113.000
34.775    6431.000
34.789    5310.000
34.804    4404.000
34.818    3482.000
34.833    3037.000
34.847    2642.000
34.862    2454.000
34.876    2478.000
34.891    2311.000
34.905    2367.000
34.920    2222.000
34.934    2344.000
34.949    2283.000
34.963    2257.000
34.978    2310.000
34.992    2293.000
35.007    2325.000
35.021    2291.000
35.036    2423.000
35.050    2549.000
35.065    2589.000
35.079    2574.000
35.094    2596.000
35.108    2486.000
35.123    2406.000
35.137    2316.000
35.152    2251.000
35.166    2234.000
35.181    2193.000
35.195    2201.000
35.210    2087.000
35.224    2218.000
35.239    2230.000
35.253    2096.000
35.268    2108.000
35.282    2262.000
35.296    2274.000
35.311    2404.000
35.325    2569.000
35.340    2638.000
35.354    2977.000
35.369    3373.000
35.383    3822.000
35.398    4196.000
35.412    4498.000
35.427    4498.000
35.441    4567.000
35.456    4471.000
35.470    4360.000
35.485    4276.000
35.499    4393.000
35.514    4165.000
35.528    4139.000
35.543    3818.000
35.557    3585.000
35.572    3073.000
35.586    2605.000
35.601    2352.000
35.615    2240.000
35.630    2127.000
35.644    2153.000
35.659    2133.000
35.673    2082.000
35.688    2023.000
35.702    2131.000
35.717    2001.000
35.731    2016.000
35.746    2081.000
35.760    1999.000
35.775    2093.000
35.789    2054.000
35.804    2065.000
35.818    1989.000
35.833    2023.000
35.847    1970.000
35.862    1995.000
35.876    1967.000
35.891    2001.000
35.905    2054.000
35.920    2008.000
35.934    2070.000
35.949    1896.000
35.963    1922.000
35.977    2103.000
35.992    2147.000
36.006    1895.000
36.021    2092.000
36.035    2061.000
36.050    2147.000
36.064    2028.000
36.079    2138.000
36.093    2012.000
36.108    2099.000
36.122    2001.000
36.137    2029.000
36.151    1998.000
36.166    1946.000
36.180    2034.000
36.195    2005.000
36.209    1855.000
36.224    1936.000
36.238    1977.000
36.253    2068.000
36.267    2001.000
36.282    1979.000
36.296    1988.000
36.311    2087.000
36.325    2004.000
36.340    2110.000
36.354    2175.000
36.369    2178.000
36.383    2318.000
36.398    2698.000
36.412    3057.000
36.427    3553.000
36.441    4257.000
36.456    4885.000
36.470    5313.000
36.485    5232.000
36.499    5020.000
36.514    4384.000
36.528    3760.000
36.543    3320.000
36.557    2820.000
36.572    2639.000
36.586    2418.000
36.601    2285.000
36.615    2239.000
36.629    2146.000
36.644    2082.000
36.658    2103.000
36.673    2102.000
36.687    2044.000
36.702    2104.000
36.716    2207.000
36.731    2353.000
36.745    2473.000
36.760    2569.000
36.774    2720.000
36.789    2728.000
36.803    2765.000
36.818    2627.000
36.832    2464.000
36.847    2296.000
36.861    2136.000
36.876    2082.000
36.890    2082.000
36.905    1980.000
36.919    2040.000
36.934    2050.000
36.948    2143.000
36.963    2168.000
36.977    2079.000
36.992    2108.000
37.006    2162.000
37.021    2159.000
37.035    2137.000
37.050    2060.000
37.064    2034.000
37.079    1950.000
37.093    1976.000
37.108    1887.000
37.122    1826.000
37.137    1928.000
37.151    1838.000
37.166    1904.000
37.180    1878.000
37.195    1901.000
37.209    1915.000
37.224    1834.000
37.238    1791.000
37.253    1881.000
37.267    1858.000
37.281    1829.000
37.296    1759.000
37.310    1861.000
37.325    1881.000
37.339    1874.000
37.354    1883.000
37.368    1898.000
37.383    1856.000
37.397    1844.000
37.412    1816.000
37.426    1842.000
37.441    1865.000
37.455    1855.000
37.470    1915.000
37.484    1944.000
37.499    1998.000
37.513    1870.000
37.528    1964.000
37.542    2010.000
37.557    1927.000
37.571    1972.000
37.586    1942.000
37.600    2030.000
37.615    2216.000
37.629    2256.000
37.644    2524.000
37.658    2871.000
37.673    3241.000
37.687    3666.000
37.702    3854.000
37.716    3863.000
37.731    3618.000
37.745    3338.000
37.760    2833.000
37.774    2523.000
37.789    2219.000
37.803    2057.000
37.818    1936.000
37.832    1931.000
37.847    1909.000
37.861    1864.000
37.876    1844.000
37.890    1882.000
37.905    1955.000
37.919    1966.000
37.933    1888.000
37.948    2020.000
37.962    2038.000
37.977    2256.000
37.991    2263.000
38.006    2320.000
38.020    2293.000
38.035    2313.000
38.049    2238.000
38.064    2185.000
38.078    2173.000
38.093    2241.000
38.107    2362.000
38.122    2447.000
38.136    2636.000
38.151    2855.000
38.165    3110.000
38.180    3483.000
38.194    3976.000
38.209    4332.000
38.223    4719.000
38.238    4834.000
38.252    4983.000
38.267    4718.000
38.281    4374.000
38.296    3813.000
38.310    3246.000
38.325    2881.000
38.339    2557.000
38.354    2439.000
38.368    2264.000
38.383    2190.000
38.397    2257.000
38.412    2077.000
38.426    2047.000
38.441    1953.000
38.455    1906.000
38.470    1901.000
38.484    1824.000
38.499    1902.000
38.513    1933.000
38.528    1855.000
38.542    1791.000
38.557    1928.000
38.571    1871.000
38.586    1961.000
38.600    2005.000
38.614    2043.000
38.629    2165.000
38.643    2255.000
38.658    2554.000
38.672    2884.000
38.687    3402.000
38.701    3887.000
38.716    4060.000
38.730    4173.000
38.745    4273.000
38.759    3921.000
38.774    3489.000
38.788    2916.000
38.803    2596.000
38.817    2342.000
38.832    2130.000
38.846    2098.000
38.861    2113.000
38.875    2217.000
38.890    2341.000
38.904    2707.000
38.919    3129.000
38.933    4081.000
38.948    4898.000
38.962    5888.000
38.977    6481.000
38.991    6734.000
39.006    6433.000
39.020    5777.000
39.035    4818.000
39.049    3827.000
39.064    3083.000
39.078    2629.000
39.093    2441.000
39.107    2309.000
39.122    2557.000
39.136    2761.000
39.151    3176.000
39.165    3762.000
39.180    3943.000
39.194    4074.000
39.209    3978.000
39.223    3619.000
39.238    3481.000
39.252    2971.000
39.266    2578.000
39.281    2298.000
39.295    2019.000
39.310    1863.000
39.324    1985.000
39.339    1767.000
39.353    1823.000
39.368    1836.000
39.382    1890.000
39.397    1979.000
39.411    2152.000
39.426    2227.000
39.440    2288.000
39.455    2540.000
39.469    2529.000
39.484    2539.000
39.498    2376.000
39.513    2241.000
39.527    1996.000
39.542    1868.000
39.556    1794.000
39.571    1823.000
39.585    1713.000
39.600    1642.000
39.614    1687.000
39.629    1676.000
39.643    1657.000
39.658    1717.000
39.672    1621.000
39.687    1628.000
39.701    1688.000
39.716    1673.000
39.730    1608.000
39.745    1672.000
39.759    1695.000
39.774    1763.000
39.788    1615.000
39.803    1653.000
39.817    1659.000
39.832    1621.000
39.846    1710.000
39.861    1650.000
39.875    1642.000
39.890    1656.000
39.904    1676.000
39.918    1664.000
39.933    1762.000
39.947    1722.000
39.962    1742.000
39.976    1742.000
39.991    1802.000
40.005    1774.000
40.020    1838.000
40.034    1789.000
40.049    1759.000
40.063    1810.000
40.078    1807.000
40.092    1697.000
40.107    1786.000
40.121    1761.000
40.136    1782.000
40.150    1892.000
40.165    2038.000
40.179    2130.000
40.194    2280.000
40.208    2694.000
40.223    3098.000
40.237    3479.000
40.252    3923.000
40.266    4064.000
40.281    4246.000
40.295    3945.000
40.310    3612.000
40.324    3126.000
40.339    2679.000
40.353    2218.000
40.368    2022.000
40.382    1861.000
40.397    1749.000
40.411    1691.000
40.426    1681.000
40.440    1713.000
40.455    1672.000
40.469    1647.000
40.484    1701.000
40.498    1710.000
40.513    1594.000
40.527    1631.000
40.542    1665.000
40.556    1595.000
40.570    1663.000
40.585    1644.000
40.599    1635.000
40.614    1592.000
40.628    1573.000
40.643    1588.000
40.657    1630.000
40.672    1552.000
40.686    1632.000
40.701    1687.000
40.715    1644.000
40.730    1574.000
40.744    1666.000
40.759    1595.000
40.773    1631.000
40.788    1667.000
40.802    1644.000
40.817    1640.000
40.831    1630.000
40.846    1634.000
40.860    1635.000
40.875    1614.000
40.889    1579.000
40.904    1683.000
40.918    1605.000
40.933    1580.000
40.947    1630.000
40.962    1662.000
40.976    1556.000
40.991    1584.000
41.005    1569.000
41.020    1633.000
41.034    1614.000
41.049    1653.000
41.063    1624.000
41.078    1571.000
41.092    1669.000
41.107    1746.000
41.121    1817.000
41.136    1813.000
41.150    1918.000
41.165    1866.000
41.179    1886.000
41.194    1935.000
41.208    1885.000
41.222    1926.000
41.237    1887.000
41.251    1887.000
41.266    1915.000
41.280    1908.000
41.295    2049.000
41.309    2209.000
41.324    2451.000
41.338    2747.000
41.353    2985.000
41.367    3115.000
41.382    2951.000
41.396    2754.000
41.411    2662.000
41.425    2470.000
41.440    2064.000
41.454    1885.000
41.469    1857.000
41.483    1749.000
41.498    1708.000
41.512    1659.000
41.527    1624.000
41.541    1628.000
41.556    1585.000
41.570    1633.000
41.585    1671.000
41.599    1561.000
41.614    1494.000
41.628    1673.000
41.643    1649.000
41.657    1681.000
41.672    1635.000
41.686    1741.000
41.701    1814.000
41.715    1853.000
41.730    2067.000
41.744    2147.000
41.759    2189.000
41.773    2247.000
41.788    2257.000
41.802    2142.000
41.817    2012.000
41.831    1804.000
41.846    1895.000
41.860    1764.000
41.875    1656.000
41.889    1730.000
41.903    1829.000
41.918    1788.000
41.932    1841.000
41.947    1872.000
41.961    1931.000
41.976    1992.000
41.990    2105.000
42.005    2042.000
42.019    2031.000
42.034    1931.000
42.048    1790.000
42.063    1850.000
42.077    1696.000
42.092    1599.000
42.106    1623.000
42.121    1581.000
42.135    1591.000
42.150    1583.000
42.164    1566.000
42.179    1610.000
42.193    1600.000
42.208    1601.000
42.222    1620.000
42.237    1521.000
42.251    1550.000
42.266    1529.000
42.280    1531.000
42.295    1615.000
42.309    1536.000
42.324    1507.000
42.338    1591.000
42.353    1497.000
42.367    1497.000
42.382    1510.000
42.396    1524.000
42.411    1512.000
42.425    1608.000
42.440    1523.000
42.454    1548.000
42.469    1521.000
42.483    1604.000
42.498    1511.000
42.512    1539.000
42.527    1566.000
42.541    1568.000
42.555    1566.000
42.570    1461.000
42.584    1520.000
42.599    1502.000
42.613    1535.000
42.628    1592.000
42.642    1493.000
42.657    1535.000
42.671    1591.000
42.686    1588.000
42.700    1659.000
42.715    1614.000
42.729    1700.000
42.744    1737.000
42.758    1713.000
42.773    1758.000
42.787    1756.000
42.802    1741.000
42.816    1698.000
42.831    1708.000
42.845    1642.000
42.860    1610.000
42.874    1637.000
42.889    1716.000
42.903    1743.000
42.918    1949.000
42.932    2059.000
42.947    2315.000
42.961    2567.000
42.976    2677.000
42.990    2816.000
43.005    2831.000
43.019    2685.000
43.034    2617.000
43.048    2281.000
43.063    2000.000
43.077    1864.000
43.092    1600.000
43.106    1664.000
43.121    1552.000
43.135    1597.000
43.150    1589.000
43.164    1623.000
43.179    1634.000
43.193    1709.000
43.207    1737.000
43.222    1764.000
43.236    1889.000
43.251    1868.000
43.265    1824.000
43.280    1866.000
43.294    1855.000
43.309    1783.000
43.323    1689.000
43.338    1600.000
43.352    1671.000
43.367    1632.000
43.381    1661.000
43.396    1565.000
43.410    1636.000
43.425    1599.000
43.439    1656.000
43.454    1638.000
43.468    1622.000
43.483    1577.000
43.497    1559.000
43.512    1537.000
43.526    1537.000
43.541    1535.000
43.555    1478.000
43.570    1592.000
43.584    1568.000
43.599    1586.000
43.613    1602.000
43.628    1566.000
43.642    1572.000
43.657    1645.000
43.671    1703.000
43.686    1856.000
43.700    2025.000
43.715    2175.000
43.729    2336.000
43.744    2572.000
43.758    2534.000
43.773    2683.000
43.787    2524.000
43.802    2352.000
43.816    2109.000
43.831    2007.000
43.845    1806.000
43.859    1821.000
43.874    1697.000
43.888    1752.000
43.903    1758.000
43.917    1648.000
43.932    1866.000
43.946    1812.000
43.961    1809.000
43.975    1778.000
43.990    1816.000
44.004    1955.000
44.019    1959.000
44.033    2025.000
44.048    2072.000
44.062    2091.000
44.077    1959.000
44.091    1952.000
44.106    1831.000
44.120    1838.000
44.135    1764.000
44.149    1667.000
44.164    1715.000
44.178    1634.000
44.193    1617.000
44.207    1620.000
44.222    1645.000
44.236    1648.000
44.251    1607.000
44.265    1589.000
44.280    1576.000
44.294    1654.000
44.309    1653.000
44.323    1687.000
44.338    1800.000
44.352    1874.000
44.367    1929.000
44.381    2239.000
44.396    2409.000
44.410    2779.000
44.425    2949.000
44.439    3181.000
44.454    3371.000
44.468    3429.000
44.483    3423.000
44.497    3391.000
44.512    3103.000
44.526    3049.000
44.540    2828.000
44.555    2512.000
44.569    2276.000
44.584    2035.000
44.598    1984.000
44.613    1766.000
44.627    1677.000
44.642    1719.000
44.656    1707.000
44.671    1609.000
44.685    1556.000
44.700    1502.000
44.714    1611.000
44.729    1616.000
44.743    1569.000
44.758    1557.000
44.772    1614.000
44.787    1523.000
44.801    1639.000
44.816    1678.000
44.830    1540.000
44.845    1643.000
44.859    1643.000
44.874    1665.000
44.888    1650.000
44.903    1686.000
44.917    1649.000
44.932    1632.000
44.946    1661.000
44.961    1610.000
44.975    1592.000
44.990    1541.000
45.004    1545.000
45.019    1577.000
45.033    1592.000
45.048    1546.000
45.062    1573.000
45.077    1552.000
45.091    1596.000
45.106    1570.000
45.120    1483.000
45.135    1525.000
45.149    1604.000
45.164    1598.000
45.178    1614.000
45.192    1635.000
45.207    1608.000
45.221    1605.000
45.236    1673.000
45.250    1665.000
45.265    1812.000
45.279    1850.000
45.294    2045.000
45.308    2139.000
45.323    2580.000
45.337    2663.000
45.352    2886.000
45.366    3085.000
45.381    3065.000
45.395    2973.000
45.410    2756.000
45.424    2439.000
45.439    2272.000
45.453    2089.000
45.468    1989.000
45.482    2009.000
45.497    1880.000
45.511    1846.000
45.526    1769.000
45.540    1822.000
45.555    1869.000
45.569    1825.000
45.584    1877.000
45.598    1807.000
45.613    1816.000
45.627    1747.000
45.642    1711.000
45.656    1696.000
45.671    1618.000
45.685    1563.000
45.700    1602.000
45.714    1595.000
45.729    1616.000
45.743    1667.000
45.758    1598.000
45.772    1663.000
45.787    1717.000
45.801    1770.000
45.816    1789.000
45.830    1994.000
45.844    2026.000
45.859    2074.000
45.873    2231.000
45.888    2547.000
45.902    2769.000
45.917    3115.000
45.931    3403.000
45.946    3711.000
45.960    3818.000
45.975    3895.000
45.989    3881.000
46.004    3699.000
46.018    3557.000
46.033    3259.000
46.047    3185.000
46.062    3257.000
46.076    3185.000
46.091    3237.000
46.105    3098.000
46.120    2940.000
46.134    2728.000
46.149    2470.000
46.163    2183.000
46.178    2016.000
46.192    1812.000
46.207    1660.000
46.221    1629.000
46.236    1639.000
46.250    1528.000
46.265    1521.000
46.279    1498.000
46.294    1597.000
46.308    1622.000
46.323    1653.000
46.337    1738.000
46.352    1765.000
46.366    1829.000
46.381    2061.000
46.395    2109.000
46.410    2155.000
46.424    2245.000
46.439    2201.000
46.453    2082.000
46.468    1984.000
46.482    1882.000
46.496    1783.000
46.511    1675.000
46.525    1697.000
46.540    1697.000
46.554    1791.000
46.569    1929.000
46.583    2153.000
46.598    2201.000
46.612    2161.000
46.627    2214.000
46.641    2168.000
46.656    2047.000
46.670    1933.000
46.685    1817.000
46.699    1768.000
46.714    1691.000
46.728    1770.000
46.743    1835.000
46.757    1885.000
46.772    1992.000
46.786    1948.000
46.801    2079.000
46.815    2094.000
46.830    1907.000
46.844    1850.000
46.859    1776.000
46.873    1706.000
46.888    1603.000
46.902    1593.000
46.917    1595.000
46.931    1570.000
46.946    1562.000
46.960    1571.000
46.975    1617.000
46.989    1682.000
47.004    1597.000
47.018    1561.000
47.033    1563.000
47.047    1595.000
47.062    1544.000
47.076    1572.000
47.091    1506.000
47.105    1560.000
47.120    1537.000
47.134    1539.000
47.149    1601.000
47.163    1678.000
47.177    1788.000
47.192    1934.000
47.206    2089.000
47.221    2294.000
47.235    2266.000
47.250    2182.000
47.264    2276.000
47.279    2177.000
47.293    2191.000
47.308    2193.000
47.322    2112.000
47.337    2052.000
47.351    1963.000
47.366    1966.000
47.380    1846.000
47.395    1750.000
47.409    1712.000
47.424    1598.000
47.438    1498.000
47.453    1501.000
47.467    1487.000
47.482    1412.000
47.496    1469.000
47.511    1428.000
47.525    1532.000
47.540    1496.000
47.554    1500.000
47.569    1517.000
47.583    1506.000
47.598    1575.000
47.612    1603.000
47.627    1651.000
47.641    1747.000
47.656    1824.000
47.670    1917.000
47.685    2074.000
47.699    2125.000
47.714    2275.000
47.728    2418.000
47.743    2476.000
47.757    2424.000
47.772    2341.000
47.786    2211.000
47.801    2130.000
47.815    1821.000
47.829    1768.000
47.844    1678.000
47.858    1575.000
47.873    1442.000
47.887    1484.000
47.902    1492.000
47.916    1487.000
47.931    1446.000
47.945    1444.000
47.960    1471.000
47.974    1508.000
47.989    1564.000
48.003    1649.000
48.018    1646.000
48.032    1621.000
48.047    1715.000
48.061    1643.000
48.076    1551.000
48.090    1527.000
48.105    1518.000
48.119    1602.000
48.134    1567.000
48.148    1681.000
48.163    1681.000
48.177    1891.000
48.192    1880.000
48.206    2077.000
48.221    2193.000
48.235    2256.000
48.250    2150.000
48.264    2073.000
48.279    2055.000
48.293    1941.000
48.308    1972.000
48.322    2012.000
48.337    2110.000
48.351    2136.000
48.366    2126.000
48.380    2021.000
48.395    1895.000
48.409    1902.000
48.424    1751.000
48.438    1681.000
48.453    1530.000
48.467    1559.000
48.481    1490.000
48.496    1413.000
48.510    1408.000
48.525    1380.000
48.539    1433.000
48.554    1329.000
48.568    1418.000
48.583    1408.000
48.597    1371.000
48.612    1457.000
48.626    1470.000
48.641    1482.000
48.655    1489.000
48.670    1534.000
48.684    1411.000
48.699    1469.000
48.713    1394.000
48.728    1420.000
48.742    1430.000
48.757    1421.000
48.771    1371.000
48.786    1425.000
48.800    1437.000
48.815    1346.000
48.829    1369.000
48.844    1379.000
48.858    1439.000
48.873    1408.000
48.887    1409.000
48.902    1394.000
48.916    1370.000
48.931    1431.000
48.945    1355.000
48.960    1338.000
48.974    1369.000
48.989    1407.000
49.003    1419.000
49.018    1403.000
49.032    1378.000
49.047    1426.000
49.061    1394.000
49.076    1419.000
49.090    1543.000
49.105    1522.000
49.119    1618.000
49.133    1725.000
49.148    1927.000
49.162    2159.000
49.177    2319.000
49.191    2511.000
49.206    2595.000
49.220    2556.000
49.235    2512.000
49.249    2252.000
49.264    2061.000
49.278    1839.000
49.293    1636.000
49.307    1659.000
49.322    1599.000
49.336    1618.000
49.351    1685.000
49.365    1836.000
49.380    1941.000
49.394    1927.000
49.409    1980.000
49.423    2034.000
49.438    1859.000
49.452    1880.000
49.467    1700.000
49.481    1687.000
49.496    1595.000
49.510    1676.000
49.525    1648.000
49.539    1659.000
49.554    1543.000
49.568    1618.000
49.583    1607.000
49.597    1500.000
49.612    1492.000
49.626    1492.000
49.641    1486.000
49.655    1397.000
49.670    1370.000
49.684    1366.000
49.699    1282.000
49.713    1303.000
49.728    1357.000
49.742    1378.000
49.757    1348.000
49.771    1478.000
49.785    1334.000
49.800    1419.000
49.814    1419.000
49.829    1325.000
49.843    1440.000
49.858    1522.000
49.872    1448.000
49.887    1429.000
49.901    1437.000
49.916    1376.000
49.930    1401.000
49.945    1356.000
49.959    1367.000
49.974    1337.000
49.988    1401.000
50.003    1479.000
50.017    1422.000
50.032    1443.000
50.046    1660.000
50.061    1661.000
50.075    1766.000
50.090    1731.000
50.104    1738.000
50.119    1685.000
50.133    1705.000
50.148    1594.000
50.162    1510.000
50.177    1424.000
50.191    1418.000
50.206    1383.000
50.220    1323.000
50.235    1345.000
50.249    1398.000
50.264    1367.000
50.278    1381.000
50.293    1265.000
50.307    1375.000
50.322    1375.000
50.336    1339.000
50.351    1404.000
50.365    1349.000
50.380    1383.000
50.394    1322.000
50.409    1400.000
50.423    1336.000
50.438    1487.000
50.452    1377.000
50.466    1397.000
50.481    1538.000
50.495    1510.000
50.510    1511.000
50.524    1500.000
50.539    1431.000
50.553    1420.000
50.568    1407.000
50.582    1366.000
50.597    1459.000
50.611    1416.000
50.626    1401.000
50.640    1484.000
50.655    1561.000
50.669    1614.000
50.684    1797.000
50.698    1858.000
50.713    2068.000
50.727    2313.000
50.742    2349.000
50.756    2475.000
50.771    2666.000
50.785    2763.000
50.800    2885.000
50.814    2870.000
50.829    2832.000
50.843    2787.000
50.858    2589.000
50.872    2533.000
50.887    2295.000
50.901    2125.000
50.916    1958.000
50.930    1852.000
50.945    1675.000
50.959    1582.000
50.974    1616.000
50.988    1530.000
51.003    1558.000
51.017    1582.000
51.032    1558.000
51.046    1466.000
51.061    1513.000
51.075    1466.000
51.090    1501.000
51.104    1430.000
51.118    1446.000
51.133    1421.000
51.147    1324.000
51.162    1293.000
51.176    1323.000
51.191    1379.000
51.205    1370.000
51.220    1321.000
51.234    1434.000
51.249    1450.000
51.263    1373.000
51.278    1441.000
51.292    1462.000
51.307    1553.000
51.321    1773.000
51.336    1914.000
51.350    2161.000
51.365    2308.000
51.379    2626.000
51.394    2772.000
51.408    2870.000
51.423    2869.000
51.437    2917.000
51.452    2708.000
51.466    2544.000
51.481    2349.000
51.495    2257.000
51.510    2025.000
51.524    1856.000
51.539    1830.000
51.553    1724.000
51.568    1549.000
51.582    1436.000
51.597    1408.000
51.611    1366.000
51.626    1446.000
51.640    1385.000
51.655    1433.000
51.669    1417.000
51.684    1483.000
51.698    1532.000
51.713    1741.000
51.727    1770.000
51.742    1778.000
51.756    1845.000
51.770    1821.000
51.785    1656.000
51.799    1624.000
51.814    1589.000
51.828    1539.000
51.843    1461.000
51.857    1362.000
51.872    1369.000
51.886    1357.000
51.901    1330.000
51.915    1282.000
51.930    1300.000
51.944    1313.000
51.959    1306.000
51.973    1296.000
51.988    1317.000
52.002    1282.000
52.017    1306.000
52.031    1296.000
52.046    1330.000
52.060    1299.000
52.075    1302.000
52.089    1333.000
52.104    1349.000
52.118    1349.000
52.133    1414.000
52.147    1429.000
52.162    1473.000
52.176    1553.000
52.191    1486.000
52.205    1592.000
52.220    1486.000
52.234    1524.000
52.249    1555.000
52.263    1486.000
52.278    1490.000
52.292    1507.000
52.307    1495.000
52.321    1487.000
52.336    1434.000
52.350    1413.000
52.365    1451.000
52.379    1405.000
52.394    1352.000
52.408    1422.000
52.422    1442.000
52.437    1472.000
52.451    1507.000
52.466    1541.000
52.480    1677.000
52.495    1771.000
52.509    1925.000
52.524    2073.000
52.538    2137.000
52.553    2182.000
52.567    2112.000
52.582    2088.000
52.596    1996.000
52.611    1932.000
52.625    1801.000
52.640    1735.000
52.654    1672.000
52.669    1630.000
52.683    1717.000
52.698    1693.000
52.712    1770.000
52.727    1906.000
52.741    1901.000
52.756    1962.000
52.770    1890.000
52.785    1856.000
52.799    1698.000
52.814    1615.000
52.828    1564.000
52.843    1485.000
52.857    1475.000
52.872    1411.000
52.886    1311.000
52.901    1349.000
52.915    1316.000
52.930    1380.000
52.944    1314.000
52.959    1371.000
52.973    1392.000
52.988    1366.000
53.002    1424.000
53.017    1480.000
53.031    1552.000
53.046    1669.000
53.060    1722.000
53.075    1889.000
53.089    2033.000
53.103    2056.000
53.118    2154.000
53.132    2180.000
53.147    2287.000
53.161    2303.000
53.176    2328.000
53.190    2536.000
53.205    2640.000
53.219    2835.000
53.234    3228.000
53.248    3603.000
53.263    3807.000
53.277    4116.000
53.292    4419.000
53.306    4441.000
53.321    4311.000
53.335    4022.000
53.350    3884.000
53.364    3435.000
53.379    3217.000
53.393    2660.000
53.408    2416.000
53.422    2078.000
53.437    1872.000
53.451    1707.000
53.466    1655.000
53.480    1686.000
53.495    1565.000
53.509    1524.000
53.524    1481.000
53.538    1470.000
53.553    1457.000
53.567    1392.000
53.582    1365.000
53.596    1381.000
53.611    1445.000
53.625    1408.000
53.640    1479.000
53.654    1519.000
53.669    1589.000
53.683    1571.000
53.698    1648.000
53.712    1617.000
53.727    1492.000
53.741    1503.000
53.755    1446.000
53.770    1428.000
53.784    1399.000
53.799    1370.000
53.813    1439.000
53.828    1434.000
53.842    1417.000
53.857    1372.000
53.871    1365.000
53.886    1387.000
53.900    1350.000
53.915    1349.000
53.929    1356.000
53.944    1395.000
53.958    1268.000
53.973    1365.000
53.987    1358.000
54.002    1354.000
54.016    1264.000
54.031    1329.000
54.045    1357.000
54.060    1328.000
54.074    1402.000
54.089    1357.000
54.103    1310.000
54.118    1282.000
54.132    1343.000
54.147    1308.000
54.161    1306.000
54.176    1324.000
54.190    1396.000
54.205    1460.000
54.219    1427.000
54.234    1641.000
54.248    1776.000
54.263    1874.000
54.277    1920.000
54.292    2041.000
54.306    1961.000
54.321    1876.000
54.335    1943.000
54.350    1764.000
54.364    1770.000
54.379    1670.000
54.393    1560.000
54.407    1666.000
54.422    1643.000
54.436    1773.000
54.451    1854.000
54.465    2099.000
54.480    1999.000
54.494    2116.000
54.509    2108.000
54.523    2081.000
54.538    2000.000
54.552    1914.000
54.567    1857.000
54.581    1795.000
54.596    1789.000
54.610    1730.000
54.625    1711.000
54.639    1835.000
54.654    1816.000
54.668    1796.000
54.683    1659.000
54.697    1685.000
54.712    1575.000
54.726    1532.000
54.741    1379.000
54.755    1341.000
54.770    1353.000
54.784    1349.000
54.799    1340.000
54.813    1315.000
54.828    1347.000
54.842    1379.000
54.857    1494.000
54.871    1432.000
54.886    1584.000
54.900    1659.000
54.915    1752.000
54.929    1766.000
54.944    1957.000
54.958    1908.000
54.973    1988.000
54.987    2055.000
55.002    2028.000
55.016    2028.000
55.031    1995.000
55.045    1925.000
55.059    1933.000
55.074    1887.000
55.088    1786.000
55.103    1785.000
55.117    1696.000
55.132    1546.000
55.146    1512.000
55.161    1549.000
55.175    1456.000
55.190    1464.000
55.204    1435.000
55.219    1360.000
55.233    1415.000
55.248    1437.000
55.262    1427.000
55.277    1427.000
55.291    1449.000
55.306    1485.000
55.320    1499.000
55.335    1437.000
55.349    1474.000
55.364    1545.000
55.378    1631.000
55.393    1597.000
55.407    1604.000
55.422    1578.000
55.436    1627.000
55.451    1562.000
55.465    1549.000
55.480    1574.000
55.494    1591.000
55.509    1576.000
55.523    1512.000
55.538    1507.000
55.552    1549.000
55.567    1589.000
55.581    1696.000
55.596    1666.000
55.610    1625.000
55.625    1689.000
55.639    1705.000
55.654    1784.000
55.668    1743.000
55.683    1846.000
55.697    1745.000
55.711    1862.000
55.726    1787.000
55.740    1928.000
55.755    1889.000
55.769    1943.000
55.784    1872.000
55.798    1875.000
55.813    1750.000
55.827    1640.000
55.842    1516.000
55.856    1348.000
55.871    1371.000
55.885    1346.000
55.900    1311.000
55.914    1321.000
55.929    1277.000
55.943    1303.000
55.958    1263.000
55.972    1197.000
55.987    1288.000
56.001    1268.000
56.016    1304.000
56.030    1339.000
56.045    1230.000
56.059    1264.000
56.074    1300.000
56.088    1215.000
56.103    1405.000
56.117    1279.000
56.132    1301.000
56.146    1393.000
56.161    1313.000
56.175    1334.000
56.190    1368.000
56.204    1311.000
56.219    1305.000
56.233    1306.000
56.248    1316.000
56.262    1304.000
56.277    1232.000
56.291    1228.000
56.306    1235.000
56.320    1323.000
56.335    1284.000
56.349    1338.000
56.364    1392.000
56.378    1502.000
56.392    1555.000
56.407    1616.000
56.421    1679.000
56.436    1767.000
56.450    1836.000
56.465    1828.000
56.479    1931.000
56.494    1972.000
56.508    1995.000
56.523    1903.000
56.537    1913.000
56.552    1839.000
56.566    1793.000
56.581    1740.000
56.595    1859.000
56.610    1870.000
56.624    1979.000
56.639    1981.000
56.653    2075.000
56.668    2184.000
56.682    2392.000
56.697    2374.000
56.711    2261.000
56.726    2161.000
56.740    2084.000
56.755    2043.000
56.769    1900.000
56.784    1792.000
56.798    1674.000
56.813    1510.000
56.827    1500.000
56.842    1455.000
56.856    1341.000
56.871    1269.000
56.885    1292.000
56.900    1318.000
56.914    1217.000
56.929    1222.000
56.943    1216.000
56.958    1265.000
56.972    1264.000
56.987    1184.000
57.001    1238.000
57.016    1162.000
57.030    1216.000
57.044    1213.000
57.059    1228.000
57.073    1221.000
57.088    1199.000
57.102    1268.000
57.117    1174.000
57.131    1274.000
57.146    1192.000
57.160    1207.000
57.175    1151.000
57.189    1125.000
57.204    1182.000
57.218    1223.000
57.233    1173.000
57.247    1193.000
57.262    1237.000
57.276    1205.000
57.291    1294.000
57.305    1212.000
57.320    1262.000
57.334    1247.000
57.349    1265.000
57.363    1254.000
57.378    1250.000
57.392    1239.000
57.407    1242.000
57.421    1296.000
57.436    1240.000
57.450    1300.000
57.465    1247.000
57.479    1294.000
57.494    1314.000
57.508    1268.000
57.523    1299.000
57.537    1292.000
57.552    1278.000
57.566    1225.000
57.581    1245.000
57.595    1292.000
57.610    1261.000
57.624    1256.000
57.639    1193.000
57.653    1193.000
57.668    1156.000
57.682    1166.000
57.696    1141.000
57.711    1200.000
57.725    1170.000
57.740    1221.000
57.754    1154.000
57.769    1194.000
57.783    1144.000
57.798    1258.000
57.812    1206.000
57.827    1147.000
57.841    1225.000
57.856    1227.000
57.870    1241.000
57.885    1273.000
57.899    1257.000
57.914    1286.000
57.928    1315.000
57.943    1242.000
57.957    1331.000
57.972    1294.000
57.986    1244.000
58.001    1279.000
58.015    1296.000
58.030    1222.000
58.044    1239.000
58.059    1275.000
58.073    1204.000
58.088    1176.000
58.102    1187.000
58.117    1190.000
58.131    1173.000
58.146    1206.000
58.160    1184.000
58.175    1169.000
58.189    1238.000
58.204    1283.000
58.218    1207.000
58.233    1294.000
58.247    1343.000
58.262    1353.000
58.276    1466.000
58.291    1502.000
58.305    1493.000
58.320    1534.000
58.334    1549.000
58.348    1536.000
58.363    1449.000
58.377    1447.000
58.392    1430.000
58.406    1437.000
58.421    1505.000
58.435    1459.000
58.450    1496.000
58.464    1510.000
58.479    1431.000
58.493    1458.000
58.508    1444.000
58.522    1461.000
58.537    1341.000
58.551    1300.000
58.566    1340.000
58.580    1280.000
58.595    1264.000
