 5.000    4130.000
 5.014    4039.000
 5.029    4067.000
 5.043    4078.000
 5.058    3950.000
 5.072    4123.000
 5.087    3975.000
 5.101    3936.000
 5.116    3969.000
 5.130    3971.000
 5.145    4111.000
 5.159    3896.000
 5.174    4027.000
 5.188    4014.000
 5.203    3967.000
 5.217    3988.000
 5.232    3895.000
 5.246    3833.000
 5.261    3911.000
 5.275    3980.000
 5.290    3953.000
 5.304    3957.000
 5.319    3925.000
 5.333    3873.000
 5.348    3874.000
 5.362    3874.000
 5.377    3814.000
 5.391    3749.000
 5.406    3859.000
 5.420    3831.000
 5.435    3808.000
 5.449    3712.000
 5.464    3765.000
 5.478    3746.000
 5.493    3756.000
 5.507    3675.000
 5.522    3773.000
 5.536    3712.000
 5.551    3739.000
 5.565    3679.000
 5.580    3855.000
 5.594    3786.000
 5.609    3710.000
 5.623    3692.000
 5.638    3695.000
 5.652    3582.000
 5.666    3620.000
 5.681    3652.000
 5.695    3585.000
 5.710    3505.000
 5.724    3631.000
 5.739    3518.000
 5.753    3498.000
 5.768    3633.000
 5.782    3516.000
 5.797    3529.000
 5.811    3617.000
 5.826    3458.000
 5.840    3687.000
 5.855    3545.000
 5.869    3508.000
 5.884    3481.000
 5.898    3535.000
 5.913    3540.000
 5.927    3501.000
 5.942    3560.000
 5.956    3471.000
 5.971    3486.000
 5.985    3510.000
 6.000    3473.000
 6.014    3429.000
 6.029    3429.000
 6.043    3368.000
 6.058    3361.000
 6.072    3517.000
 6.087    3463.000
 6.101    3332.000
 6.116    3471.000
 6.130    3324.000
 6.145    3387.000
 6.159    3345.000
 6.174    3349.000
 6.188    3363.000
 6.203    3396.000
 6.217    3273.000
 6.232    3247.000
 6.246    3397.000
 6.261    3282.000
 6.275    3141.000
 6.290    3404.000
 6.304    3347.000
 6.318    3246.000
 6.333    3260.000
 6.347    3275.000
 6.362    3280.000
 6.376    3249.000
 6.391    3192.000
 6.405    3207.000
 6.420    3216.000
 6.434    3167.000
 6.449    3202.000
 6.463    3094.000
 6.478    3195.000
 6.492    3237.000
 6.507    3320.000
 6.521    3190.000
 6.536    3196.000
 6.550    3010.000
 6.565    3184.000
 6.579    3146.000
 6.594    3098.000
 6.608    3164.000
 6.623    3159.000
 6.637    3158.000
 6.652    3175.000
 6.666    3083.000
 6.681    3114.000
 6.695    3015.000
 6.710    2989.000
 6.724    3049.000
 6.739    3094.000
 6.753    3031.000
 6.768    3058.000
 6.782    3020.000
 6.797    2996.000
 6.811    3093.000
 6.826    3018.000
 6.840    3060.000
 6.855    2998.000
 6.869    2973.000
 6.884    2891.000
 6.898    3154.000
 6.913    2979.000
 6.927    2957.000
 6.942    3003.000
 6.956    2905.000
 6.971    2918.000
 6.985    2894.000
 6.999    2915.000
 7.014    2931.000
 7.028    2919.000
 7.043    2820.000
 7.057    2900.000
 7.072    2940.000
 7.086    2854.000
 7.101    2853.000
 7.115    2781.000
 7.130    2862.000
 7.144    2947.000
 7.159    2889.000
 7.173    2826.000
 7.188    2868.000
 7.202    2804.000
 7.217    2811.000
 7.231    2824.000
 7.246    2790.000
 7.260    2623.000
 7.275    2803.000
 7.289    2806.000
 7.304    2827.000
 7.318    2851.000
 7.333    2714.000
 7.347    2763.000
 7.362    2777.000
 7.376    2778.000
 7.391    2788.000
 7.405    2784.000
 7.420    2799.000
 7.434    2669.000
 7.449    2694.000
 7.463    2643.000
 7.478    2605.000
 7.492    2672.000
 7.507    2830.000
 7.521    2680.000
 7.536    2658.000
 7.550    2743.000
 7.565    2572.000
 7.579    2684.000
 7.594    2582.000
 7.608    2720.000
 7.623    2680.000
 7.637    2550.000
 7.651    2650.000
 7.666    2527.000
 7.680    2626.000
 7.695    2667.000
 7.709    2594.000
 7.724    2549.000
 7.738    2652.000
 7.753    2611.000
 7.767    2546.000
 7.782    2558.000
 7.796    2492.000
 7.811    2620.000
 7.825    2570.000
 7.840    2568.000
 7.854    2591.000
 7.869    2574.000
 7.883    2572.000
 7.898    2488.000
 7.912    2589.000
 7.927    2476.000
 7.941    2500.000
 7.956    2531.000
 7.970    2488.000
 7.985    2577.000
 7.999    2572.000
 8.014    2535.000
 8.028    2439.000
 8.043    2464.000
 8.057    2448.000
 8.072    2394.000
 8.086    2299.000
 8.101    2450.000
 8.115    2395.000
 8.130    2405.000
 8.144    2384.000
 8.159    2398.000
 8.173    2522.000
 8.188    2443.000
 8.202    2374.000
 8.217    2436.000
 8.231    2416.000
 8.246    2398.000
 8.260    2368.000
 8.275    2288.000
 8.289    2374.000
 8.303    2310.000
 8.318    2419.000
 8.332    2312.000
 8.347    2359.000
 8.361    2347.000
 8.376    2321.000
 8.390    2387.000
 8.405    2369.000
 8.419    2339.000
 8.434    2390.000
 8.448    2291.000
 8.463    2335.000
 8.477    2295.000
 8.492    2285.000
 8.506    2277.000
 8.521    2250.000
 8.535    2308.000
 8.550    2212.000
 8.564    2200.000
 8.579    2322.000
 8.593    2269.000
 8.608    2261.000
 8.622    2285.000
 8.637    2168.000
 8.651    2189.000
 8.666    2208.000
 8.680    2187.000
 8.695    2187.000
 8.709    2245.000
 8.724    2195.000
 8.738    2205.000
 8.753    2304.000
 8.767    2224.000
 8.782    2240.000
 8.796    2192.000
 8.811    2227.000
 8.825    2204.000
 8.840    2270.000
 8.854    2207.000
 8.869    2238.000
 8.883    2202.000
 8.898    2156.000
 8.912    2088.000
 8.927    2202.000
 8.941    2161.000
 8.955    2141.000
 8.970    2141.000
 8.984    2074.000
 8.999    2060.000
 9.013    2208.000
 9.028    2135.000
 9.042    2093.000
 9.057    2055.000
 9.071    2042.000
 9.086    2075.000
 9.100    2161.000
 9.115    2148.000
 9.129    2065.000
 9.144    2058.000
 9.158    2025.000
 9.173    1970.000
 9.187    2042.000
 9.202    2011.000
 9.216    2048.000
 9.231    2139.000
 9.245    2046.000
 9.260    2020.000
 9.274    2069.000
 9.289    2116.000
 9.303    2143.000
 9.318    2024.000
 9.332    2079.000
 9.347    2033.000
 9.361    2129.000
 9.376    2037.000
 9.390    2022.000
 9.405    2060.000
 9.419    2043.000
 9.434    2022.000
 9.448    1999.000
 9.463    1972.000
 9.477    2089.000
 9.492    2066.000
 9.506    2051.000
 9.521    1920.000
 9.535    2033.000
 9.550    2082.000
 9.564    2050.000
 9.579    1973.000
 9.593    2044.000
 9.608    2037.000
 9.622    1960.000
 9.636    2002.000
 9.651    2105.000
 9.665    1994.000
 9.680    2139.000
 9.694    1930.000
 9.709    1980.000
 9.723    1959.000
 9.738    1947.000
 9.752    2068.000
 9.767    2057.000
 9.781    1977.000
 9.796    2025.000
 9.810    2001.000
 9.825    1935.000
 9.839    2014.000
 9.854    1989.000
 9.868    1821.000
 9.883    1924.000
 9.897    1923.000
 9.912    1952.000
 9.926    1894.000
 9.941    1910.000
 9.955    1918.000
 9.970    1901.000
 9.984    1945.000
 9.999    1982.000
10.013    1935.000
10.028    1907.000
10.042    1924.000
10.057    1922.000
10.071    1975.000
10.086    2002.000
10.100    1885.000
10.115    1882.000
10.129    1840.000
10.144    1918.000
10.158    1929.000
10.173    1936.000
10.187    1837.000
10.202    1908.000
10.216    1921.000
10.231    1892.000
10.245    1873.000
10.260    1918.000
10.274    1866.000
10.288    1995.000
10.303    1891.000
10.317    1835.000
10.332    1908.000
10.346    1933.000
10.361    1884.000
10.375    1890.000
10.390    1913.000
10.404    1876.000
10.419    1847.000
10.433    1893.000
10.448    1865.000
10.462    1875.000
10.477    1891.000
10.491    1897.000
10.506    1852.000
10.520    1862.000
10.535    1863.000
10.549    1964.000
10.564    1795.000
10.578    1801.000
10.593    1891.000
10.607    1805.000
10.622    1784.000
10.636    1803.000
10.651    1883.000
10.665    1839.000
10.680    1816.000
10.694    1805.000
10.709    1846.000
10.723    1773.000
10.738    1836.000
10.752    1836.000
10.767    1751.000
10.781    1887.000
10.796    1922.000
10.810    1850.000
10.825    1768.000
10.839    1864.000
10.854    1847.000
10.868    1818.000
10.883    1891.000
10.897    1888.000
10.912    1908.000
10.926    1826.000
10.940    1837.000
10.955    1898.000
10.969    1843.000
10.984    1925.000
10.998    1780.000
11.013    1866.000
11.027    1939.000
11.042    1942.000
11.056    1815.000
11.071    1892.000
11.085    1937.000
11.100    2017.000
11.114    2066.000
11.129    1991.000
11.143    2065.000
11.158    2095.000
11.172    2125.000
11.187    2161.000
11.201    2263.000
11.216    2359.000
11.230    2485.000
11.245    2599.000
11.259    2774.000
11.274    3048.000
11.288    3243.000
11.303    3485.000
11.317    4048.000
11.332    4641.000
11.346    5506.000
11.361    6869.000
11.375    8514.000
11.390   10323.000
11.404   10322.000
11.419    8222.000
11.433    5570.000
11.448    3726.000
11.462    2675.000
11.477    2137.000
11.491    1939.000
11.506    1884.000
11.520    1832.000
11.535    1767.000
11.549    1776.000
11.564    1786.000
11.578    1833.000
11.592    1821.000
11.607    1838.000
11.621    1771.000
11.636    1815.000
11.650    1809.000
11.665    1698.000
11.679    1796.000
11.694    1818.000
11.708    1819.000
11.723    1911.000
11.737    1814.000
11.752    1902.000
11.766    1837.000
11.781    1827.000
11.795    1871.000
11.810    1866.000
11.824    1970.000
11.839    1917.000
11.853    2046.000
11.868    1999.000
11.882    2136.000
11.897    2209.000
11.911    2340.000
11.926    2372.000
11.940    2615.000
11.955    2801.000
11.969    3219.000
11.984    3401.000
11.998    3921.000
12.013    4170.000
12.027    4215.000
12.042    3923.000
12.056    3436.000
12.071    2681.000
12.085    2302.000
12.100    2069.000
12.114    1846.000
12.129    1788.000
12.143    1766.000
12.158    1786.000
12.172    1729.000
12.187    1739.000
12.201    1732.000
12.216    1646.000
12.230    1683.000
12.245    1689.000
12.259    1728.000
12.273    1709.000
12.288    1682.000
12.302    1701.000
12.317    1704.000
12.331    1693.000
12.346    1618.000
12.360    1717.000
12.375    1621.000
12.389    1687.000
12.404    1666.000
12.418    1660.000
12.433    1647.000
12.447    1750.000
12.462    1708.000
12.476    1729.000
12.491    1640.000
12.505    1684.000
12.520    1657.000
12.534    1659.000
12.549    1741.000
12.563    1639.000
12.578    1654.000
12.592    1643.000
12.607    1707.000
12.621    1642.000
12.636    1743.000
12.650    1704.000
12.665    1695.000
12.679    1662.000
12.694    1657.000
12.708    1691.000
12.723    1603.000
12.737    1614.000
12.752    1648.000
12.766    1652.000
12.781    1609.000
12.795    1668.000
12.810    1685.000
12.824    1637.000
12.839    1608.000
12.853    1545.000
12.868    1639.000
12.882    1628.000
12.897    1659.000
12.911    1689.000
12.925    1604.000
12.940    1634.000
12.954    1596.000
12.969    1665.000
12.983    1621.000
12.998    1636.000
13.012    1569.000
13.027    1566.000
13.041    1567.000
13.056    1630.000
13.070    1587.000
13.085    1656.000
13.099    1697.000
13.114    1649.000
13.128    1588.000
13.143    1613.000
13.157    1662.000
13.172    1600.000
13.186    1613.000
13.201    1632.000
13.215    1605.000
13.230    1623.000
13.244    1607.000
13.259    1616.000
13.273    1572.000
13.288    1589.000
13.302    1617.000
13.317    1633.000
13.331    1644.000
13.346    1626.000
13.360    1616.000
13.375    1685.000
13.389    1639.000
13.404    1605.000
13.418    1663.000
13.433    1663.000
13.447    1580.000
13.462    1614.000
13.476    1561.000
13.491    1596.000
13.505    1590.000
13.520    1545.000
13.534    1519.000
13.549    1625.000
13.563    1617.000
13.577    1608.000
13.592    1669.000
13.606    1611.000
13.621    1552.000
13.635    1604.000
13.650    1562.000
13.664    1573.000
13.679    1525.000
13.693    1610.000
13.708    1633.000
13.722    1527.000
13.737    1636.000
13.751    1611.000
13.766    1630.000
13.780    1570.000
13.795    1579.000
13.809    1629.000
13.824    1602.000
13.838    1541.000
13.853    1660.000
13.867    1568.000
13.882    1505.000
13.896    1641.000
13.911    1513.000
13.925    1610.000
13.940    1570.000
13.954    1645.000
13.969    1529.000
13.983    1557.000
13.998    1527.000
14.012    1591.000
14.027    1619.000
14.041    1628.000
14.056    1589.000
14.070    1655.000
14.085    1556.000
14.099    1549.000
14.114    1619.000
14.128    1566.000
14.143    1547.000
14.157    1672.000
14.172    1638.000
14.186    1625.000
14.201    1552.000
14.215    1606.000
14.229    1638.000
14.244    1588.000
14.258    1605.000
14.273    1614.000
14.287    1644.000
14.302    1589.000
14.316    1634.000
14.331    1625.000
14.345    1640.000
14.360    1669.000
14.374    1693.000
14.389    1649.000
14.403    1724.000
14.418    1687.000
14.432    1633.000
14.447    1678.000
14.461    1614.000
14.476    1744.000
14.490    1532.000
14.505    1705.000
14.519    1634.000
14.534    1664.000
14.548    1598.000
14.563    1604.000
14.577    1575.000
14.592    1613.000
14.606    1640.000
14.621    1663.000
14.635    1598.000
14.650    1621.000
14.664    1624.000
14.679    1615.000
14.693    1712.000
14.708    1664.000
14.722    1793.000
14.737    1695.000
14.751    1715.000
14.766    1758.000
14.780    1814.000
14.795    1810.000
14.809    1929.000
14.824    2010.000
14.838    1960.000
14.853    2145.000
14.867    2243.000
14.881    2529.000
14.896    2758.000
14.910    3161.000
14.925    3457.000
14.939    4228.000
14.954    5068.000
14.968    6204.000
14.983    7592.000
14.997    8758.000
15.012    8650.000
15.026    7520.000
15.041    5746.000
15.055    3976.000
15.070    2902.000
15.084    2199.000
15.099    1842.000
15.113    1838.000
15.128    1745.000
15.142    1748.000
15.157    1596.000
15.171    1661.000
15.186    1496.000
15.200    1602.000
15.215    1550.000
15.229    1519.000
15.244    1599.000
15.258    1625.000
15.273    1544.000
15.287    1633.000
15.302    1586.000
15.316    1584.000
15.331    1603.000
15.345    1581.000
15.360    1571.000
15.374    1587.000
15.389    1622.000
15.403    1566.000
15.418    1611.000
15.432    1543.000
15.447    1550.000
15.461    1531.000
15.476    1605.000
15.490    1733.000
15.505    1568.000
15.519    1607.000
15.534    1628.000
15.548    1613.000
15.562    1498.000
15.577    1527.000
15.591    1550.000
15.606    1555.000
15.620    1579.000
15.635    1599.000
15.649    1562.000
15.664    1620.000
15.678    1564.000
15.693    1565.000
15.707    1594.000
15.722    1590.000
15.736    1605.000
15.751    1643.000
15.765    1721.000
15.780    1734.000
15.794    1735.000
15.809    1710.000
15.823    1880.000
15.838    1936.000
15.852    1983.000
15.867    1994.000
15.881    2259.000
15.896    2567.000
15.910    2794.000
15.925    3172.000
15.939    3722.000
15.954    4548.000
15.968    5309.000
15.983    6054.000
15.997    6245.000
16.012    5670.000
16.026    4557.000
16.041    3555.000
16.055    2738.000
16.070    2223.000
16.084    1940.000
16.099    1725.000
16.113    1704.000
16.128    1680.000
16.142    1596.000
16.157    1636.000
16.171    1591.000
16.186    1660.000
16.200    1612.000
16.214    1660.000
16.229    1606.000
16.243    1545.000
16.258    1611.000
16.272    1679.000
16.287    1629.000
16.301    1614.000
16.316    1589.000
16.330    1572.000
16.345    1547.000
16.359    1626.000
16.374    1561.000
16.388    1608.000
16.403    1597.000
16.417    1567.000
16.432    1702.000
16.446    1647.000
16.461    1645.000
16.475    1557.000
16.490    1584.000
16.504    1659.000
16.519    1703.000
16.533    1693.000
16.548    1651.000
16.562    1592.000
16.577    1652.000
16.591    1553.000
16.606    1662.000
16.620    1716.000
16.635    1619.000
16.649    1569.000
16.664    1646.000
16.678    1694.000
16.693    1635.000
16.707    1569.000
16.722    1687.000
16.736    1650.000
16.751    1665.000
16.765    1714.000
16.780    1701.000
16.794    1652.000
16.809    1691.000
16.823    1737.000
16.838    1746.000
16.852    1720.000
16.866    1708.000
16.881    1666.000
16.895    1678.000
16.910    1649.000
16.924    1670.000
16.939    1586.000
16.953    1703.000
16.968    1779.000
16.982    1615.000
16.997    1737.000
17.011    1716.000
17.026    1660.000
17.040    1612.000
17.055    1663.000
17.069    1711.000
17.084    1614.000
17.098    1619.000
17.113    1645.000
17.127    1660.000
17.142    1607.000
17.156    1692.000
17.171    1693.000
17.185    1679.000
17.200    1729.000
17.214    1724.000
17.229    1670.000
17.243    1603.000
17.258    1625.000
17.272    1708.000
17.287    1690.000
17.301    1650.000
17.316    1691.000
17.330    1778.000
17.345    1641.000
17.359    1727.000
17.374    1714.000
17.388    1731.000
17.403    1652.000
17.417    1690.000
17.432    1657.000
17.446    1708.000
17.461    1702.000
17.475    1694.000
17.490    1673.000
17.504    1708.000
17.518    1733.000
17.533    1687.000
17.547    1683.000
17.562    1745.000
17.576    1676.000
17.591    1795.000
17.605    1702.000
17.620    1702.000
17.634    1695.000
17.649    1777.000
17.663    1757.000
17.678    1764.000
17.692    1751.000
17.707    1750.000
17.721    1760.000
17.736    1807.000
17.750    1755.000
17.765    1897.000
17.779    1846.000
17.794    1897.000
17.808    1858.000
17.823    1945.000
17.837    2000.000
17.852    1971.000
17.866    1974.000
17.881    2088.000
17.895    2275.000
17.910    2295.000
17.924    2515.000
17.939    2701.000
17.953    3117.000
17.968    3484.000
17.982    4101.000
17.997    4833.000
18.011    5864.000
18.026    6720.000
18.040    7984.000
18.055    8264.000
18.069    7978.000
18.084    7169.000
18.098    5637.000
18.113    4355.000
18.127    3374.000
18.142    2798.000
18.156    2269.000
18.171    2160.000
18.185    2029.000
18.199    1944.000
18.214    1928.000
18.228    1856.000
18.243    1858.000
18.257    1847.000
18.272    1857.000
18.286    1863.000
18.301    1875.000
18.315    1813.000
18.330    1852.000
18.344    1854.000
18.359    1881.000
18.373    1807.000
18.388    1890.000
18.402    1821.000
18.417    1825.000
18.431    1824.000
18.446    1823.000
18.460    1804.000
18.475    1868.000
18.489    1838.000
18.504    1821.000
18.518    1917.000
18.533    1871.000
18.547    1835.000
18.562    1923.000
18.576    1938.000
18.591    1962.000
18.605    1962.000
18.620    2127.000
18.634    2171.000
18.649    2243.000
18.663    2446.000
18.678    2595.000
18.692    2912.000
18.707    3116.000
18.721    3236.000
18.736    3232.000
18.750    3136.000
18.765    2734.000
18.779    2553.000
18.794    2328.000
18.808    2133.000
18.823    2146.000
18.837    2099.000
18.851    2119.000
18.866    2151.000
18.880    2201.000
18.895    2269.000
18.909    2429.000
18.924    2578.000
18.938    2839.000
18.953    3170.000
18.967    3581.000
18.982    4004.000
18.996    4792.000
19.011    5481.000
19.025    5888.000
19.040    5819.000
19.054    5357.000
19.069    4497.000
19.083    3897.000
19.098    3409.000
19.112    3160.000
19.127    2834.000
19.141    2620.000
19.156    2451.000
19.170    2131.000
19.185    2051.000
19.199    2043.000
19.214    2000.000
19.228    1872.000
19.243    2003.000
19.257    1992.000
19.272    1925.000
19.286    1914.000
19.301    1997.000
19.315    1964.000
19.330    1951.000
19.344    1922.000
19.359    2027.000
19.373    1985.000
19.388    2005.000
19.402    1933.000
19.417    2016.000
19.431    1934.000
19.446    1984.000
19.460    1979.000
19.475    2005.000
19.489    1991.000
19.503    2053.000
19.518    2004.000
19.532    1921.000
19.547    1986.000
19.561    1985.000
19.576    1981.000
19.590    1966.000
19.605    2091.000
19.619    1971.000
19.634    2024.000
19.648    2058.000
19.663    1935.000
19.677    1994.000
19.692    1996.000
19.706    2062.000
19.721    2053.000
19.735    2028.000
19.750    1993.000
19.764    2014.000
19.779    2008.000
19.793    2045.000
19.808    1997.000
19.822    2034.000
19.837    2035.000
19.851    1904.000
19.866    2075.000
19.880    2096.000
19.895    2006.000
19.909    2133.000
19.924    2064.000
19.938    2084.000
19.953    1987.000
19.967    2058.000
19.982    2014.000
19.996    2026.000
20.011    2108.000
20.025    2041.000
20.040    1975.000
20.054    2062.000
20.069    1942.000
20.083    2018.000
20.098    2118.000
20.112    2050.000
20.127    2046.000
20.141    2105.000
20.155    2081.000
20.170    2094.000
20.184    2115.000
20.199    2019.000
20.213    2137.000
20.228    2076.000
20.242    2095.000
20.257    2119.000
20.271    2136.000
20.286    2080.000
20.300    2058.000
20.315    2020.000
20.329    2078.000
20.344    2101.000
20.358    2112.000
20.373    2115.000
20.387    2149.000
20.402    2174.000
20.416    2069.000
20.431    2064.000
20.445    2052.000
20.460    2091.000
20.474    2134.000
20.489    2123.000
20.503    2109.000
20.518    2040.000
20.532    2089.000
20.547    1986.000
20.561    2048.000
20.576    2091.000
20.590    2106.000
20.605    2026.000
20.619    2150.000
20.634    2136.000
20.648    2138.000
20.663    2134.000
20.677    2169.000
20.692    2175.000
20.706    2059.000
20.721    2082.000
20.735    2096.000
20.750    2226.000
20.764    2171.000
20.779    2163.000
20.793    2041.000
20.807    2122.000
20.822    2233.000
20.836    2254.000
20.851    2216.000
20.865    2144.000
20.880    2141.000
20.894    2119.000
20.909    2258.000
20.923    2107.000
20.938    2226.000
20.952    2246.000
20.967    2172.000
20.981    2230.000
20.996    2240.000
21.010    2179.000
21.025    2277.000
21.039    2387.000
21.054    2388.000
21.068    2400.000
21.083    2574.000
21.097    2720.000
21.112    2986.000
21.126    3067.000
21.141    3287.000
21.155    3266.000
21.170    3029.000
21.184    2921.000
21.199    2598.000
21.213    2488.000
21.228    2238.000
21.242    2136.000
21.257    2181.000
21.271    2189.000
21.286    2148.000
21.300    2172.000
21.315    2186.000
21.329    2182.000
21.344    2198.000
21.358    2192.000
21.373    2124.000
21.387    2171.000
21.402    2116.000
21.416    2158.000
21.431    2193.000
21.445    2135.000
21.460    2077.000
21.474    2172.000
21.488    2125.000
21.503    2264.000
21.517    2105.000
21.532    2110.000
21.546    2165.000
21.561    2185.000
21.575    2251.000
21.590    2136.000
21.604    2124.000
21.619    2178.000
21.633    2093.000
21.648    2119.000
21.662    2180.000
21.677    2233.000
21.691    2221.000
21.706    2236.000
21.720    2147.000
21.735    2191.000
21.749    2088.000
21.764    2092.000
21.778    2116.000
21.793    2167.000
21.807    2114.000
21.822    2061.000
21.836    2157.000
21.851    2195.000
21.865    2171.000
21.880    2159.000
21.894    2084.000
21.909    2135.000
21.923    2131.000
21.938    2184.000
21.952    2159.000
21.967    2187.000
21.981    2177.000
21.996    2222.000
22.010    2151.000
22.025    2181.000
22.039    2209.000
22.054    2155.000
22.068    2163.000
22.083    2128.000
22.097    2197.000
22.112    2149.000
22.126    2178.000
22.140    2122.000
22.155    2161.000
22.169    2145.000
22.184    2109.000
22.198    2121.000
22.213    2151.000
22.227    2151.000
22.242    2169.000
22.256    2153.000
22.271    2132.000
22.285    2193.000
22.300    2198.000
22.314    2156.000
22.329    2182.000
22.343    2134.000
22.358    2177.000
22.372    2141.000
22.387    2099.000
22.401    2124.000
22.416    2165.000
22.430    2143.000
22.445    2149.000
22.459    2129.000
22.474    2104.000
22.488    2074.000
22.503    2092.000
22.517    2224.000
22.532    2158.000
22.546    2159.000
22.561    2018.000
22.575    2119.000
22.590    2091.000
22.604    2212.000
22.619    2173.000
22.633    2166.000
22.648    2152.000
22.662    2151.000
22.677    2127.000
22.691    2163.000
22.706    2139.000
22.720    2257.000
22.735    2237.000
22.749    2201.000
22.764    2276.000
22.778    2333.000
22.792    2353.000
22.807    2565.000
22.821    2582.000
22.836    2847.000
22.850    3231.000
22.865    3576.000
22.879    4401.000
22.894    5179.000
22.908    5826.000
22.923    6019.000
22.937    5455.000
22.952    4472.000
22.966    3497.000
22.981    2930.000
22.995    2559.000
23.010    2370.000
23.024    2221.000
23.039    2349.000
23.053    2310.000
23.068    2271.000
23.082    2228.000
23.097    2278.000
23.111    2235.000
23.126    2216.000
23.140    2340.000
23.155    2267.000
23.169    2365.000
23.184    2457.000
23.198    2461.000
23.213    2467.000
23.227    2648.000
23.242    2656.000
23.256    2825.000
23.271    3191.000
23.285    3410.000
23.300    3817.000
23.314    4372.000
23.329    5105.000
23.343    6443.000
23.358    8271.000
23.372   10917.000
23.387   14682.000
23.401   19728.000
23.416   27218.000
23.430   35070.000
23.444   41301.000
23.459   42107.000
23.473   37531.000
23.488   28485.000
23.502   19165.000
23.517   11238.000
23.531    6827.000
23.546    4735.000
23.560    3388.000
23.575    2988.000
23.589    2642.000
23.604    2536.000
23.618    2351.000
23.633    2403.000
23.647    2355.000
23.662    2306.000
23.676    2312.000
23.691    2347.000
23.705    2305.000
23.720    2158.000
23.734    2282.000
23.749    2332.000
23.763    2244.000
23.778    2198.000
23.792    2304.000
23.807    2293.000
23.821    2428.000
23.836    2448.000
23.850    2560.000
23.865    2799.000
23.879    3042.000
23.894    3212.000
23.908    3066.000
23.923    3060.000
23.937    2673.000
23.952    2536.000
23.966    2357.000
23.981    2319.000
23.995    2299.000
24.010    2259.000
24.024    2463.000
24.039    2535.000
24.053    2670.000
24.068    2889.000
24.082    3098.000
24.097    3447.000
24.111    3761.000
24.125    4408.000
24.140    4878.000
24.154    5392.000
24.169    5930.000
24.183    6315.000
24.198    6447.000
24.212    5969.000
24.227    5427.000
24.241    4644.000
24.256    4100.000
24.270    3352.000
24.285    2972.000
24.299    2595.000
24.314    2371.000
24.328    2213.000
24.343    2088.000
24.357    2170.000
24.372    2079.000
24.386    2059.000
24.401    2021.000
24.415    1977.000
24.430    1993.000
24.444    1981.000
24.459    2058.000
24.473    2017.000
24.488    2056.000
24.502    2064.000
24.517    2034.000
24.531    2129.000
24.546    2231.000
24.560    2298.000
24.575    2467.000
24.589    2873.000
24.604    3045.000
24.618    3388.000
24.633    3465.000
24.647    3352.000
24.662    2968.000
24.676    2666.000
24.691    2358.000
24.705    2144.000
24.720    1975.000
24.734    1897.000
24.749    1810.000
24.763    1751.000
24.777    1872.000
24.792    1817.000
24.806    1818.000
24.821    1778.000
24.835    1807.000
24.850    1799.000
24.864    1814.000
24.879    1751.000
24.893    1695.000
24.908    1753.000
24.922    1724.000
24.937    1752.000
24.951    1765.000
24.966    1685.000
24.980    1776.000
24.995    1674.000
25.009    1735.000
25.024    1766.000
25.038    1796.000
25.053    1736.000
25.067    1777.000
25.082    1668.000
25.096    1741.000
25.111    1702.000
25.125    1678.000
25.140    1728.000
25.154    1718.000
25.169    1815.000
25.183    1715.000
25.198    1639.000
25.212    1696.000
25.227    1719.000
25.241    1775.000
25.256    1757.000
25.270    1717.000
25.285    1779.000
25.299    1835.000
25.314    1692.000
25.328    1817.000
25.343    1797.000
25.357    1822.000
25.372    1754.000
25.386    1819.000
25.401    1753.000
25.415    1724.000
25.429    1676.000
25.444    1706.000
25.458    1685.000
25.473    1655.000
25.487    1652.000
25.502    1779.000
25.516    1687.000
25.531    1604.000
25.545    1691.000
25.560    1733.000
25.574    1675.000
25.589    1628.000
25.603    1641.000
25.618    1615.000
25.632    1608.000
25.647    1637.000
25.661    1671.000
25.676    1703.000
25.690    1656.000
25.705    1592.000
25.719    1585.000
25.734    1625.000
25.748    1652.000
25.763    1647.000
25.777    1559.000
25.792    1604.000
25.806    1622.000
25.821    1554.000
25.835    1548.000
25.850    1600.000
25.864    1608.000
25.879    1554.000
25.893    1603.000
25.908    1610.000
25.922    1597.000
25.937    1565.000
25.951    1578.000
25.966    1555.000
25.980    1598.000
25.995    1512.000
26.009    1549.000
26.024    1594.000
26.038    1645.000
26.053    1656.000
26.067    1618.000
26.081    1567.000
26.096    1645.000
26.110    1582.000
26.125    1636.000
26.139    1537.000
26.154    1521.000
26.168    1593.000
26.183    1552.000
26.197    1583.000
26.212    1532.000
26.226    1498.000
26.241    1572.000
26.255    1461.000
26.270    1621.000
26.284    1541.000
26.299    1515.000
26.313    1543.000
26.328    1516.000
26.342    1520.000
26.357    1517.000
26.371    1496.000
26.386    1491.000
26.400    1526.000
26.415    1406.000
26.429    1402.000
26.444    1478.000
26.458    1543.000
26.473    1512.000
26.487    1456.000
26.502    1519.000
26.516    1492.000
26.531    1473.000
26.545    1501.000
26.560    1496.000
26.574    1477.000
26.589    1489.000
26.603    1453.000
26.618    1444.000
26.632    1458.000
26.647    1435.000
26.661    1469.000
26.676    1388.000
26.690    1386.000
26.705    1405.000
26.719    1413.000
26.733    1399.000
26.748    1413.000
26.762    1478.000
26.777    1511.000
26.791    1410.000
26.806    1515.000
26.820    1453.000
26.835    1385.000
26.849    1445.000
26.864    1397.000
26.878    1427.000
26.893    1430.000
26.907    1456.000
26.922    1464.000
26.936    1382.000
26.951    1508.000
26.965    1504.000
26.980    1513.000
26.994    1596.000
27.009    1624.000
27.023    1700.000
27.038    1826.000
27.052    1920.000
27.067    2175.000
27.081    2496.000
27.096    2817.000
27.110    3103.000
27.125    3339.000
27.139    3483.000
27.154    3386.000
27.168    3015.000
27.183    2650.000
27.197    2252.000
27.212    1992.000
27.226    1780.000
27.241    1646.000
27.255    1609.000
27.270    1491.000
27.284    1526.000
27.299    1592.000
27.313    1563.000
27.328    1572.000
27.342    1731.000
27.357    1727.000
27.371    1881.000
27.386    1965.000
27.400    2013.000
27.414    1950.000
27.429    1862.000
27.443    1657.000
27.458    1603.000
27.472    1568.000
27.487    1505.000
27.501    1475.000
27.516    1481.000
27.530    1484.000
27.545    1549.000
27.559    1604.000
27.574    1707.000
27.588    1747.000
27.603    1716.000
27.617    1694.000
27.632    1559.000
27.646    1526.000
27.661    1548.000
27.675    1449.000
27.690    1420.000
27.704    1417.000
27.719    1369.000
27.733    1422.000
27.748    1440.000
27.762    1501.000
27.777    1496.000
27.791    1592.000
27.806    1730.000
27.820    1789.000
27.835    1890.000
27.849    2073.000
27.864    2180.000
27.878    2152.000
27.893    2192.000
27.907    2060.000
27.922    1889.000
27.936    1664.000
27.951    1565.000
27.965    1544.000
27.980    1481.000
27.994    1457.000
28.009    1389.000
28.023    1367.000
28.038    1404.000
28.052    1415.000
28.066    1418.000
28.081    1378.000
28.095    1442.000
28.110    1406.000
28.124    1489.000
28.139    1484.000
28.153    1444.000
28.168    1529.000
28.182    1599.000
28.197    1651.000
28.211    1793.000
28.226    1754.000
28.240    1715.000
28.255    1735.000
28.269    1884.000
28.284    1872.000
28.298    1888.000
28.313    2056.000
28.327    2201.000
28.342    2534.000
28.356    3155.000
28.371    3700.000
28.385    4629.000
28.400    6034.000
28.414    7785.000
28.429   10126.000
28.443   13004.000
28.458   15980.000
28.472   18242.000
28.487   19149.000
28.501   18358.000
28.516   16225.000
28.530   12909.000
28.545    9489.000
28.559    6458.000
28.574    4554.000
28.588    3211.000
28.603    2408.000
28.617    2057.000
28.632    1837.000
28.646    1696.000
28.661    1634.000
28.675    1498.000
28.690    1515.000
28.704    1482.000
28.718    1494.000
28.733    1475.000
28.747    1395.000
28.762    1448.000
28.776    1396.000
28.791    1365.000
28.805    1386.000
28.820    1345.000
28.834    1339.000
28.849    1430.000
28.863    1426.000
28.878    1538.000
28.892    1632.000
28.907    1722.000
28.921    1984.000
28.936    2191.000
28.950    2495.000
28.965    2736.000
28.979    2988.000
28.994    3195.000
29.008    3266.000
29.023    3075.000
29.037    2780.000
29.052    2563.000
29.066    2162.000
29.081    1902.000
29.095    1652.000
29.110    1425.000
29.124    1301.000
29.139    1296.000
29.153    1242.000
29.168    1253.000
29.182    1193.000
29.197    1212.000
29.211    1240.000
29.226    1224.000
29.240    1128.000
29.255    1178.000
29.269    1192.000
29.284    1149.000
29.298    1237.000
29.313    1188.000
29.327    1212.000
29.342    1169.000
29.356    1171.000
29.370    1110.000
29.385    1198.000
29.399    1150.000
29.414    1157.000
29.428    1099.000
29.443    1128.000
29.457    1189.000
29.472    1168.000
29.486    1176.000
29.501    1162.000
29.515    1188.000
29.530    1165.000
29.544    1138.000
29.559    1133.000
29.573    1089.000
29.588    1165.000
29.602    1151.000
29.617    1155.000
29.631    1156.000
29.646    1118.000
29.660    1147.000
29.675    1123.000
29.689    1188.000
29.704    1170.000
29.718    1027.000
29.733    1139.000
29.747    1127.000
29.762    1141.000
29.776    1147.000
29.791    1163.000
29.805    1171.000
29.820    1192.000
29.834    1155.000
29.849    1149.000
29.863    1267.000
29.878    1220.000
29.892    1243.000
29.907    1303.000
29.921    1239.000
29.936    1242.000
29.950    1210.000
29.965    1180.000
29.979    1100.000
29.994    1133.000
30.008    1092.000
30.023    1147.000
30.037    1094.000
30.051    1094.000
30.066    1120.000
30.080    1224.000
30.095    1216.000
30.109    1199.000
30.124    1288.000
30.138    1317.000
30.153    1336.000
30.167    1464.000
30.182    1582.000
30.196    1830.000
30.211    2126.000
30.225    2396.000
30.240    2823.000
30.254    3294.000
30.269    3717.000
30.283    3740.000
30.298    3659.000
30.312    3577.000
30.327    3093.000
30.341    2617.000
30.356    2227.000
30.370    2167.000
30.385    1949.000
30.399    1985.000
30.414    2123.000
30.428    2335.000
30.443    2703.000
30.457    3152.000
30.472    3494.000
30.486    3733.000
30.501    4039.000
30.515    4075.000
30.530    4089.000
30.544    3554.000
30.559    3345.000
30.573    2870.000
30.588    2452.000
30.602    2014.000
30.617    1780.000
30.631    1549.000
30.646    1399.000
30.660    1330.000
30.675    1204.000
30.689    1152.000
30.703    1091.000
30.718    1144.000
30.732    1088.000
30.747    1104.000
30.761    1036.000
30.776    1012.000
30.790    1060.000
30.805    1053.000
30.819    1029.000
30.834    1004.000
30.848    1069.000
30.863    1013.000
30.877    1004.000
30.892    1033.000
30.906    1012.000
30.921    1011.000
30.935    1089.000
30.950    1026.000
30.964    1056.000
30.979     993.000
30.993    1028.000
31.008    1028.000
31.022     985.000
31.037    1015.000
31.051    1004.000
31.066     989.000
31.080     980.000
31.095    1048.000
31.109     967.000
31.124     952.000
31.138     935.000
31.153     949.000
31.167     948.000
31.182     991.000
31.196    1026.000
31.211     957.000
31.225    1025.000
31.240     945.000
31.254    1021.000
31.269    1012.000
31.283     934.000
31.298     969.000
31.312     985.000
31.327     960.000
31.341     979.000
31.355     968.000
31.370     995.000
31.384     911.000
31.399     970.000
31.413     997.000
31.428     970.000
31.442     988.000
31.457     996.000
31.471     928.000
31.486     961.000
31.500     967.000
31.515     971.000
31.529     957.000
31.544     991.000
31.558     943.000
31.573     978.000
31.587     971.000
31.602     955.000
31.616     890.000
31.631     994.000
31.645     971.000
31.660     953.000
31.674     924.000
31.689     978.000
31.703     968.000
31.718    1005.000
31.732     982.000
31.747     973.000
31.761     994.000
31.776     972.000
31.790     939.000
31.805     983.000
31.819     968.000
31.834     936.000
31.848     899.000
31.863     977.000
31.877     975.000
31.892     952.000
31.906     978.000
31.921     988.000
31.935    1008.000
31.950     988.000
31.964     915.000
31.979     996.000
31.993    1034.000
32.007     979.000
32.022    1017.000
32.036     988.000
32.051    1030.000
32.065    1034.000
32.080    1026.000
32.094    1121.000
32.109    1152.000
32.123    1264.000
32.138    1391.000
32.152    1442.000
32.167    1745.000
32.181    1845.000
32.196    2048.000
32.210    2356.000
32.225    2692.000
32.239    2891.000
32.254    3062.000
32.268    3043.000
32.283    2959.000
32.297    2773.000
32.312    2543.000
32.326    2253.000
32.341    1984.000
32.355    1908.000
32.370    1737.000
32.384    1661.000
32.399    1629.000
32.413    1604.000
32.428    1603.000
32.442    1595.000
32.457    1487.000
32.471    1409.000
32.486    1328.000
32.500    1148.000
32.515    1175.000
32.529    1036.000
32.544     992.000
32.558    1013.000
32.573     900.000
32.587     961.000
32.602     941.000
32.616     887.000
32.631     923.000
32.645     939.000
32.660     918.000
32.674     907.000
32.688     895.000
32.703     910.000
32.717     876.000
32.732     941.000
32.746     891.000
32.761     936.000
32.775     899.000
32.790     906.000
32.804     901.000
32.819     868.000
32.833     882.000
32.848     942.000
32.862     930.000
32.877     901.000
32.891     892.000
32.906     946.000
32.920     972.000
32.935     968.000
32.949     986.000
32.964     968.000
32.978    1010.000
32.993    1099.000
33.007    1222.000
33.022    1200.000
33.036    1343.000
33.051    1335.000
33.065    1437.000
33.080    1417.000
33.094    1312.000
33.109    1314.000
33.123    1221.000
33.138    1173.000
33.152    1110.000
33.167     963.000
33.181     910.000
33.196     982.000
33.210     905.000
33.225     968.000
33.239     939.000
33.254     852.000
33.268     901.000
33.283     904.000
33.297     876.000
33.312     915.000
33.326     866.000
33.340     822.000
33.355     875.000
33.369     856.000
33.384     872.000
33.398     865.000
33.413     864.000
33.427     882.000
33.442     850.000
33.456     813.000
33.471     849.000
33.485     971.000
33.500     886.000
33.514     823.000
33.529     882.000
33.543     859.000
33.558     896.000
33.572     887.000
33.587     910.000
33.601     891.000
33.616     913.000
33.630     870.000
33.645     850.000
33.659     849.000
33.674     906.000
33.688     921.000
33.703     889.000
33.717     872.000
33.732    1034.000
33.746    1028.000
33.761    1144.000
33.775    1195.000
33.790    1358.000
33.804    1549.000
33.819    1802.000
33.833    2157.000
33.848    2411.000
33.862    2584.000
33.877    2739.000
33.891    2635.000
33.906    2487.000
33.920    2127.000
33.935    2039.000
33.949    1827.000
33.964    1750.000
33.978    1685.000
33.992    1704.000
34.007    1790.000
34.021    1757.000
34.036    1785.000
34.050    1702.000
34.065    1529.000
34.079    1434.000
34.094    1296.000
34.108    1228.000
34.123    1068.000
34.137     987.000
34.152     921.000
34.166     882.000
34.181     837.000
34.195     795.000
34.210     864.000
34.224     795.000
34.239     877.000
34.253     860.000
34.268     906.000
34.282     816.000
34.297     826.000
34.311     847.000
34.326     849.000
34.340     886.000
34.355     857.000
34.369     841.000
34.384     791.000
34.398     799.000
34.413     808.000
34.427     810.000
34.442     779.000
34.456     787.000
34.471     831.000
34.485     859.000
34.500     807.000
34.514     826.000
34.529     866.000
34.543     878.000
34.558     869.000
34.572     930.000
34.587     889.000
34.601     904.000
34.616     908.000
34.630     967.000
34.644     949.000
34.659     980.000
34.673    1061.000
34.688     979.000
34.702    1028.000
34.717    1009.000
34.731     925.000
34.746     889.000
34.760     810.000
34.775     815.000
34.789     803.000
34.804     779.000
34.818     829.000
34.833     739.000
34.847     829.000
34.862     807.000
34.876     802.000
34.891     761.000
34.905     829.000
34.920     827.000
34.934     815.000
34.949     780.000
34.963     816.000
34.978     904.000
34.992     853.000
35.007     876.000
35.021     906.000
35.036     907.000
35.050     908.000
35.065     990.000
35.079    1005.000
35.094    1109.000
35.108    1128.000
35.123    1176.000
35.137    1177.000
35.152    1144.000
35.166    1194.000
35.181    1118.000
35.195    1070.000
35.210    1030.000
35.224     934.000
35.239     958.000
35.253     869.000
35.268     809.000
35.282     873.000
35.296     795.000
35.311     781.000
35.325     826.000
35.340     798.000
35.354     781.000
35.369     840.000
35.383     815.000
35.398     775.000
35.412     846.000
35.427     752.000
35.441     768.000
35.456     784.000
35.470     780.000
35.485     777.000
35.499     771.000
35.514     840.000
35.528     794.000
35.543     737.000
35.557     762.000
35.572     807.000
35.586     788.000
35.601     742.000
35.615     794.000
35.630     790.000
35.644     744.000
35.659     826.000
35.673     763.000
35.688     793.000
35.702     788.000
35.717     766.000
35.731     827.000
35.746     790.000
35.760     746.000
35.775     829.000
35.789     808.000
35.804     818.000
35.818     821.000
35.833     855.000
35.847     877.000
35.862     888.000
35.876     948.000
35.891    1088.000
35.905    1181.000
35.920    1305.000
35.934    1454.000
35.949    1526.000
35.963    1651.000
35.977    1628.000
35.992    1602.000
36.006    1557.000
36.021    1423.000
36.035    1272.000
36.050    1043.000
36.064    1053.000
36.079     893.000
36.093     872.000
36.108     810.000
36.122     827.000
36.137     803.000
36.151     820.000
36.166     788.000
36.180     860.000
36.195     804.000
36.209     785.000
36.224     827.000
36.238     793.000
36.253     800.000
36.267     806.000
36.282     817.000
36.296     883.000
36.311     767.000
36.325     830.000
36.340     844.000
36.354     844.000
36.369     872.000
36.383     856.000
36.398     819.000
36.412     830.000
36.427     816.000
36.441     889.000
36.456     901.000
36.470     872.000
36.485     852.000
36.499     895.000
36.514    1034.000
36.528     997.000
36.543    1126.000
36.557    1139.000
36.572    1210.000
36.586    1293.000
36.601    1250.000
36.615    1373.000
36.629    1355.000
36.644    1297.000
36.658    1249.000
36.673    1190.000
36.687    1093.000
36.702    1072.000
36.716    1060.000
36.731     958.000
36.745    1037.000
36.760     888.000
36.774     875.000
36.789     882.000
36.803     811.000
36.818     774.000
36.832     790.000
36.847     743.000
36.861     789.000
36.876     762.000
36.890     744.000
36.905     752.000
36.919     757.000
36.934     757.000
36.948     728.000
36.963     757.000
36.977     732.000
36.992     758.000
37.006     740.000
37.021     765.000
37.035     755.000
37.050     733.000
37.064     748.000
37.079     740.000
37.093     731.000
37.108     793.000
37.122     742.000
37.137     745.000
37.151     760.000
37.166     764.000
37.180     740.000
37.195     799.000
37.209     837.000
37.224     844.000
37.238     902.000
37.253     985.000
37.267    1063.000
37.281    1173.000
37.296    1404.000
37.310    1508.000
37.325    1730.000
37.339    1785.000
37.354    1703.000
37.368    1707.000
37.383    1544.000
37.397    1348.000
37.412    1283.000
37.426    1100.000
37.441     961.000
37.455     881.000
37.470     818.000
37.484     806.000
37.499     751.000
37.513     796.000
37.528     799.000
37.542     762.000
37.557     801.000
37.571     766.000
37.586     764.000
37.600     792.000
37.615     892.000
37.629     841.000
37.644     868.000
37.658     928.000
37.673     955.000
37.687    1085.000
37.702    1184.000
37.716    1281.000
37.731    1354.000
37.745    1560.000
37.760    1837.000
37.774    2010.000
37.789    2120.000
37.803    2232.000
37.818    2226.000
37.832    2252.000
37.847    2138.000
37.861    2093.000
37.876    1976.000
37.890    2009.000
37.905    2144.000
37.919    2101.000
37.933    2158.000
37.948    2331.000
37.962    2369.000
37.977    2432.000
37.991    2208.000
38.006    2102.000
38.020    1892.000
38.035    1697.000
38.049    1582.000
38.064    1442.000
38.078    1292.000
38.093    1397.000
38.107    1428.000
38.122    1415.000
38.136    1434.000
38.151    1338.000
38.165    1291.000
38.180    1267.000
38.194    1145.000
38.209     961.000
38.223     893.000
38.238     847.000
38.252     810.000
38.267     776.000
38.281     768.000
38.296     710.000
38.310     777.000
38.325     714.000
38.339     748.000
38.354     774.000
38.368     783.000
38.383     805.000
38.397     777.000
38.412     825.000
38.426     792.000
38.441     784.000
38.455     844.000
38.470     824.000
38.484     931.000
38.499     971.000
38.513    1061.000
38.528    1091.000
38.542    1185.000
38.557    1364.000
38.571    1502.000
38.586    1577.000
38.600    1824.000
38.614    1876.000
38.629    1863.000
38.643    1949.000
38.658    1832.000
38.672    1745.000
38.687    1631.000
38.701    1616.000
38.716    1490.000
38.730    1553.000
38.745    1421.000
38.759    1350.000
38.774    1356.000
38.788    1272.000
38.803    1264.000
38.817    1130.000
38.832    1026.000
38.846    1136.000
38.861    1190.000
38.875    1243.000
38.890    1363.000
38.904    1516.000
38.919    1684.000
38.933    1794.000
38.948    1813.000
38.962    1940.000
38.977    1792.000
38.991    1693.000
39.006    1508.000
39.020    1315.000
39.035    1208.000
39.049    1088.000
39.064    1028.000
39.078    1017.000
39.093    1013.000
39.107    1069.000
39.122    1093.000
39.136    1261.000
39.151    1325.000
39.165    1444.000
39.180    1425.000
39.194    1534.000
39.209    1560.000
39.223    1473.000
39.238    1517.000
39.252    1394.000
39.266    1270.000
39.281    1222.000
39.295    1104.000
39.310    1059.000
39.324     961.000
39.339     930.000
39.353     903.000
39.368     849.000
39.382     846.000
39.397     808.000
39.411     818.000
39.426     842.000
39.440     858.000
39.455     788.000
39.469     765.000
39.484     785.000
39.498     804.000
39.513     790.000
39.527     809.000
39.542     852.000
39.556     846.000
39.571     859.000
39.585     949.000
39.600     974.000
39.614    1036.000
39.629    1185.000
39.643    1230.000
39.658    1337.000
39.672    1270.000
39.687    1308.000
39.701    1341.000
39.716    1253.000
39.730    1164.000
39.745    1055.000
39.759     958.000
39.774     915.000
39.788     827.000
39.803     794.000
39.817     802.000
39.832     781.000
39.846     753.000
39.861     709.000
39.875     703.000
39.890     728.000
39.904     729.000
39.918     674.000
39.933     679.000
39.947     634.000
39.962     688.000
39.976     683.000
39.991     700.000
40.005     674.000
40.020     681.000
40.034     680.000
40.049     648.000
40.063     665.000
40.078     705.000
40.092     644.000
40.107     627.000
40.121     654.000
40.136     713.000
40.150     718.000
40.165     679.000
40.179     687.000
40.194     643.000
40.208     691.000
40.223     693.000
40.237     715.000
40.252     695.000
40.266     750.000
40.281     751.000
40.295     810.000
40.310     832.000
40.324     883.000
40.339     916.000
40.353    1002.000
40.368    1108.000
40.382    1186.000
40.397    1235.000
40.411    1298.000
40.426    1304.000
40.440    1235.000
40.455    1152.000
40.469    1086.000
40.484    1042.000
40.498     982.000
40.513     899.000
40.527     870.000
40.542     849.000
40.556     804.000
40.570     842.000
40.585     766.000
40.599     719.000
40.614     754.000
40.628     698.000
40.643     706.000
40.657     685.000
40.672     722.000
40.686     693.000
40.701     656.000
40.715     671.000
40.730     644.000
40.744     689.000
40.759     697.000
40.773     661.000
40.788     678.000
40.802     678.000
40.817     662.000
40.831     637.000
40.846     632.000
40.860     653.000
40.875     634.000
40.889     658.000
40.904     632.000
40.918     665.000
40.933     690.000
40.947     628.000
40.962     670.000
40.976     673.000
40.991     641.000
41.005     637.000
41.020     642.000
41.034     591.000
41.049     699.000
41.063     632.000
41.078     633.000
41.092     647.000
41.107     669.000
41.121     655.000
41.136     668.000
41.150     651.000
41.165     643.000
41.179     677.000
41.194     661.000
41.208     716.000
41.222     655.000
41.237     644.000
41.251     654.000
41.266     679.000
41.280     696.000
41.295     733.000
41.309     712.000
41.324     732.000
41.338     724.000
41.353     722.000
41.367     684.000
41.382     704.000
41.396     686.000
41.411     686.000
41.425     636.000
41.440     676.000
41.454     636.000
41.469     643.000
41.483     643.000
41.498     647.000
41.512     616.000
41.527     620.000
41.541     672.000
41.556     659.000
41.570     697.000
41.585     682.000
41.599     757.000
41.614     813.000
41.628     837.000
41.643     892.000
41.657     958.000
41.672     944.000
41.686     971.000
41.701     985.000
41.715     968.000
41.730     922.000
41.744     829.000
41.759     821.000
41.773     748.000
41.788     731.000
41.802     731.000
41.817     702.000
41.831     715.000
41.846     703.000
41.860     747.000
41.875     706.000
41.889     702.000
41.903     741.000
41.918     731.000
41.932     731.000
41.947     639.000
41.961     655.000
41.976     620.000
41.990     670.000
42.005     652.000
42.019     646.000
42.034     645.000
42.048     671.000
42.063     690.000
42.077     608.000
42.092     644.000
42.106     586.000
42.121     638.000
42.135     658.000
42.150     671.000
42.164     624.000
42.179     594.000
42.193     638.000
42.208     672.000
42.222     628.000
42.237     668.000
42.251     647.000
42.266     644.000
42.280     642.000
42.295     647.000
42.309     649.000
42.324     663.000
42.338     635.000
42.353     682.000
42.367     597.000
42.382     622.000
42.396     665.000
42.411     647.000
42.425     667.000
42.440     652.000
42.454     641.000
42.469     711.000
42.483     642.000
42.498     696.000
42.512     636.000
42.527     695.000
42.541     741.000
42.555     755.000
42.570     815.000
42.584     894.000
42.599     891.000
42.613     925.000
42.628     970.000
42.642    1000.000
42.657     893.000
42.671     919.000
42.686     893.000
42.700     864.000
42.715     803.000
42.729     827.000
42.744     694.000
42.758     768.000
42.773     698.000
42.787     685.000
42.802     629.000
42.816     698.000
42.831     653.000
42.845     670.000
42.860     656.000
42.874     685.000
42.889     610.000
42.903     648.000
42.918     634.000
42.932     627.000
42.947     651.000
42.961     704.000
42.976     659.000
42.990     705.000
43.005     731.000
43.019     730.000
43.034     792.000
43.048     797.000
43.063     891.000
43.077    1126.000
43.092    1153.000
43.106    1297.000
43.121    1380.000
43.135    1393.000
43.150    1373.000
43.164    1333.000
43.179    1222.000
43.193    1081.000
43.207     974.000
43.222     897.000
43.236     809.000
43.251     799.000
43.265     802.000
43.280     831.000
43.294     841.000
43.309     899.000
43.323     980.000
43.338    1011.000
43.352    1120.000
43.367    1083.000
43.381    1121.000
43.396    1077.000
43.410    1099.000
43.425    1147.000
43.439    1126.000
43.454    1005.000
43.468     958.000
43.483     928.000
43.497     849.000
43.512     863.000
43.526     743.000
43.541     718.000
43.555     723.000
43.570     699.000
43.584     719.000
43.599     670.000
43.613     638.000
43.628     693.000
43.642     730.000
43.657     659.000
43.671     626.000
43.686     658.000
43.700     655.000
43.715     645.000
43.729     653.000
43.744     706.000
43.758     690.000
43.773     632.000
43.787     626.000
43.802     627.000
43.816     644.000
43.831     673.000
43.845     663.000
43.859     654.000
43.874     646.000
43.888     660.000
43.903     606.000
43.917     692.000
43.932     657.000
43.946     652.000
43.961     619.000
43.975     676.000
43.990     651.000
44.004     673.000
44.019     668.000
44.033     633.000
44.048     687.000
44.062     674.000
44.077     627.000
44.091     627.000
44.106     671.000
44.120     638.000
44.135     661.000
44.149     656.000
44.164     648.000
44.178     615.000
44.193     680.000
44.207     634.000
44.222     642.000
44.236     691.000
44.251     654.000
44.265     676.000
44.280     657.000
44.294     670.000
44.309     657.000
44.323     639.000
44.338     677.000
44.352     660.000
44.367     678.000
44.381     659.000
44.396     709.000
44.410     654.000
44.425     717.000
44.439     719.000
44.454     710.000
44.468     723.000
44.483     728.000
44.497     771.000
44.512     853.000
44.526     823.000
44.540     815.000
44.555     829.000
44.569     829.000
44.584     802.000
44.598     781.000
44.613     774.000
44.627     787.000
44.642     710.000
44.656     723.000
44.671     655.000
44.685     665.000
44.700     648.000
44.714     650.000
44.729     633.000
44.743     661.000
44.758     676.000
44.772     648.000
44.787     671.000
44.801     627.000
44.816     683.000
44.830     630.000
44.845     699.000
44.859     632.000
44.874     641.000
44.888     652.000
44.903     672.000
44.917     617.000
44.932     649.000
44.946     655.000
44.961     676.000
44.975     680.000
44.990     676.000
45.004     644.000
45.019     666.000
45.033     632.000
45.048     707.000
45.062     677.000
45.077     743.000
45.091     736.000
45.106     718.000
45.120     744.000
45.135     729.000
45.149     707.000
45.164     751.000
45.178     753.000
45.192     784.000
45.207     724.000
45.221     746.000
45.236     767.000
45.250     765.000
45.265     690.000
45.279     733.000
45.294     703.000
45.308     675.000
45.323     697.000
45.337     692.000
45.352     699.000
45.366     634.000
45.381     617.000
45.395     641.000
45.410     664.000
45.424     663.000
45.439     625.000
45.453     671.000
45.468     614.000
45.482     677.000
45.497     640.000
45.511     625.000
45.526     670.000
45.540     647.000
45.555     623.000
45.569     663.000
45.584     644.000
45.598     689.000
45.613     659.000
45.627     705.000
45.642     660.000
45.656     699.000
45.671     695.000
45.685     723.000
45.700     686.000
45.714     721.000
45.729     767.000
45.743     775.000
45.758     769.000
45.772     781.000
45.787     800.000
45.801     736.000
45.816     785.000
45.830     763.000
45.844     762.000
45.859     834.000
45.873     832.000
45.888     832.000
45.902     905.000
45.917     923.000
45.931     914.000
45.946     927.000
45.960     939.000
45.975     891.000
45.989     929.000
46.004     848.000
46.018     850.000
46.033     830.000
46.047     779.000
46.062     814.000
46.076     777.000
46.091     726.000
46.105     784.000
46.120     756.000
46.134     795.000
46.149     801.000
46.163     834.000
46.178     821.000
46.192     941.000
46.207     904.000
46.221     942.000
46.236    1017.000
46.250    1100.000
46.265    1050.000
46.279    1161.000
46.294    1170.000
46.308    1224.000
46.323    1156.000
46.337    1178.000
46.352    1096.000
46.366    1122.000
46.381    1102.000
46.395    1093.000
46.410    1180.000
46.424    1107.000
46.439    1102.000
46.453    1221.000
46.468    1130.000
46.482    1166.000
46.496    1039.000
46.511    1015.000
46.525    1015.000
46.540     879.000
46.554     820.000
46.569     829.000
46.583     794.000
46.598     769.000
46.612     762.000
46.627     754.000
46.641     697.000
46.656     701.000
46.670     714.000
46.685     731.000
46.699     731.000
46.714     802.000
46.728     903.000
46.743    1019.000
46.757    1133.000
46.772    1320.000
46.786    1535.000
46.801    1781.000
46.815    2019.000
46.830    2011.000
46.844    1901.000
46.859    1833.000
46.873    1791.000
46.888    1392.000
46.902    1235.000
46.917    1080.000
46.931     911.000
46.946     810.000
46.960     771.000
46.975     722.000
46.989     714.000
47.004     706.000
47.018     687.000
47.033     682.000
47.047     760.000
47.062     774.000
47.076     746.000
47.091     764.000
47.105     803.000
47.120     842.000
47.134     870.000
47.148     912.000
47.163     944.000
47.177    1005.000
47.192    1059.000
47.206    1138.000
47.221    1163.000
47.235    1154.000
47.250    1124.000
47.264    1153.000
47.279    1070.000
47.293    1087.000
47.308    1007.000
47.322    1002.000
47.337     925.000
47.351     861.000
47.366     902.000
47.380     799.000
47.395     776.000
47.409     745.000
47.424     727.000
47.438     707.000
47.453     693.000
47.467     725.000
47.482     708.000
47.496     700.000
47.511     672.000
47.525     707.000
47.540     672.000
47.554     711.000
47.569     706.000
47.583     749.000
47.598     730.000
47.612     754.000
47.627     795.000
47.641     859.000
47.656     904.000
47.670     987.000
47.685    1156.000
47.699    1181.000
47.714    1332.000
47.728    1441.000
47.743    1508.000
47.757    1547.000
47.772    1517.000
47.786    1546.000
47.801    1482.000
47.815    1455.000
47.829    1322.000
47.844    1269.000
47.858    1161.000
47.873    1156.000
47.887    1141.000
47.902    1107.000
47.916    1232.000
47.931    1199.000
47.945    1332.000
47.960    1386.000
47.974    1451.000
47.989    1464.000
48.003    1379.000
48.018    1338.000
48.032    1275.000
48.047    1173.000
48.061    1017.000
48.076     927.000
48.090     911.000
48.105     839.000
48.119     823.000
48.134     836.000
48.148     849.000
48.163     848.000
48.177     824.000
48.192     855.000
48.206     846.000
48.221     774.000
48.235     811.000
48.250     732.000
48.264     754.000
48.279     725.000
48.293     741.000
48.308     670.000
48.322     666.000
48.337     676.000
48.351     706.000
48.366     691.000
48.380     656.000
48.395     663.000
48.409     650.000
48.424     628.000
48.438     658.000
48.453     587.000
48.467     665.000
48.481     689.000
48.496     625.000
48.510     646.000
48.525     638.000
48.539     699.000
48.554     681.000
48.568     650.000
48.583     687.000
48.597     679.000
48.612     725.000
48.626     757.000
48.641     744.000
48.655     760.000
48.670     726.000
48.684     845.000
48.699     825.000
48.713     820.000
48.728     787.000
48.742     840.000
48.757     788.000
48.771     820.000
48.786     825.000
48.800     826.000
48.815     785.000
48.829     745.000
48.844     777.000
48.858     720.000
48.873     723.000
48.887     749.000
48.902     762.000
48.916     706.000
48.931     735.000
48.945     808.000
48.960     811.000
48.974     757.000
48.989     774.000
49.003     753.000
49.018     804.000
49.032     821.000
49.047     746.000
49.061     737.000
49.076     776.000
49.090     703.000
49.105     744.000
49.119     772.000
49.133     695.000
49.148     684.000
49.162     755.000
49.177     699.000
49.191     770.000
49.206     760.000
49.220     805.000
49.235     789.000
49.249     908.000
49.264     891.000
49.278     921.000
49.293     998.000
49.307    1089.000
49.322    1103.000
49.336    1178.000
49.351    1113.000
49.365    1146.000
49.380    1136.000
49.394    1079.000
49.409    1047.000
49.423     940.000
49.438     984.000
49.452     888.000
49.467     849.000
49.481     837.000
49.496     771.000
49.510     799.000
49.525     694.000
49.539     763.000
49.554     811.000
49.568     811.000
49.583     830.000
49.597     932.000
49.612    1005.000
49.626    1093.000
49.641    1174.000
49.655    1282.000
49.670    1301.000
49.684    1402.000
49.699    1366.000
49.713    1252.000
49.728    1270.000
49.742    1107.000
49.757    1075.000
49.771     978.000
49.785     856.000
49.800     816.000
49.814     732.000
49.829     810.000
49.843     730.000
49.858     746.000
49.872     673.000
49.887     697.000
49.901     707.000
49.916     654.000
49.930     683.000
49.945     654.000
49.959     631.000
49.974     639.000
49.988     652.000
50.003     630.000
50.017     648.000
50.032     643.000
50.046     607.000
50.061     609.000
50.075     592.000
50.090     624.000
50.104     631.000
50.119     612.000
50.133     639.000
50.148     639.000
50.162     600.000
50.177     595.000
50.191     641.000
50.206     610.000
50.220     575.000
50.235     576.000
50.249     612.000
50.264     600.000
50.278     592.000
50.293     548.000
50.307     620.000
50.322     589.000
50.336     593.000
50.351     573.000
50.365     618.000
50.380     630.000
50.394     642.000
50.409     613.000
50.423     602.000
50.438     611.000
50.452     632.000
50.466     636.000
50.481     618.000
50.495     629.000
50.510     660.000
50.524     672.000
50.539     624.000
50.553     610.000
50.568     638.000
50.582     634.000
50.597     578.000
50.611     594.000
50.626     636.000
50.640     615.000
50.655     610.000
50.669     587.000
50.684     611.000
50.698     625.000
50.713     628.000
50.727     633.000
50.742     637.000
50.756     641.000
50.771     678.000
50.785     672.000
50.800     735.000
50.814     677.000
50.829     709.000
50.843     695.000
50.858     707.000
50.872     700.000
50.887     710.000
50.901     705.000
50.916     704.000
50.930     776.000
50.945     737.000
50.959     758.000
50.974     715.000
50.988     668.000
51.003     677.000
51.017     675.000
51.032     647.000
51.046     646.000
51.061     631.000
51.075     667.000
51.090     620.000
51.104     662.000
51.118     624.000
51.133     598.000
51.147     645.000
51.162     609.000
51.176     640.000
51.191     613.000
51.205     654.000
51.220     643.000
51.234     671.000
51.249     562.000
51.263     680.000
51.278     635.000
51.292     647.000
51.307     674.000
51.321     606.000
51.336     625.000
51.350     690.000
51.365     741.000
51.379     752.000
51.394     761.000
51.408     749.000
51.423     791.000
51.437     749.000
51.452     773.000
51.466     713.000
51.481     750.000
51.495     713.000
51.510     649.000
51.524     677.000
51.539     692.000
51.553     668.000
51.568     651.000
51.582     633.000
51.597     637.000
51.611     640.000
51.626     628.000
51.640     610.000
51.655     604.000
51.669     601.000
51.684     628.000
51.698     625.000
51.713     593.000
51.727     598.000
51.742     627.000
51.756     641.000
51.770     639.000
51.785     653.000
51.799     628.000
51.814     655.000
51.828     739.000
51.843     678.000
51.857     708.000
51.872     770.000
51.886     747.000
51.901     848.000
51.915     801.000
51.930     866.000
51.944     891.000
51.959     968.000
51.973     948.000
51.988    1117.000
52.002    1081.000
52.017    1095.000
52.031    1109.000
52.046    1049.000
52.060    1130.000
52.075    1121.000
52.089    1055.000
52.104     977.000
52.118    1038.000
52.133     966.000
52.147     936.000
52.162     894.000
52.176     901.000
52.191     873.000
52.205     802.000
52.220     799.000
52.234     743.000
52.249     769.000
52.263     712.000
52.278     720.000
52.292     665.000
52.307     648.000
52.321     741.000
52.336     706.000
52.350     708.000
52.365     782.000
52.379     777.000
52.394     830.000
52.408     863.000
52.422     976.000
52.437    1039.000
52.451    1044.000
52.466    1126.000
52.480    1172.000
52.495    1225.000
52.509    1176.000
52.524    1225.000
52.538    1115.000
52.553    1054.000
52.567     940.000
52.582     912.000
52.596     870.000
52.611     843.000
52.625     760.000
52.640     691.000
52.654     659.000
52.669     669.000
52.683     658.000
52.698     689.000
52.712     623.000
52.727     665.000
52.741     639.000
52.756     607.000
52.770     650.000
52.785     657.000
52.799     613.000
52.814     665.000
52.828     644.000
52.843     631.000
52.857     602.000
52.872     583.000
52.886     648.000
52.901     580.000
52.915     597.000
52.930     634.000
52.944     575.000
52.959     575.000
52.973     632.000
52.988     587.000
53.002     644.000
53.017     590.000
53.031     596.000
53.046     626.000
53.060     644.000
53.075     640.000
53.089     626.000
53.103     635.000
53.118     676.000
53.132     733.000
53.147     772.000
53.161     742.000
53.176     796.000
53.190     918.000
53.205     980.000
53.219    1042.000
53.234    1127.000
53.248    1312.000
53.263    1348.000
53.277    1404.000
53.292    1332.000
53.306    1360.000
53.321    1265.000
53.335    1257.000
53.350    1200.000
53.364    1117.000
53.379    1106.000
53.393    1045.000
53.408    1039.000
53.422     981.000
53.437     959.000
53.451     982.000
53.466     942.000
53.480     987.000
53.495     916.000
53.509     863.000
53.524     847.000
53.538     869.000
53.553     813.000
53.567     776.000
53.582     770.000
53.596     742.000
53.611     674.000
53.625     653.000
53.640     674.000
53.654     629.000
53.669     603.000
53.683     546.000
53.698     599.000
53.712     586.000
53.727     624.000
53.741     598.000
53.755     592.000
53.770     571.000
53.784     612.000
53.799     607.000
53.813     594.000
53.828     573.000
53.842     649.000
53.857     616.000
53.871     672.000
53.886     610.000
53.900     615.000
53.915     634.000
53.929     585.000
53.944     629.000
53.958     643.000
53.973     577.000
53.987     607.000
54.002     607.000
54.016     575.000
54.031     557.000
54.045     569.000
54.060     612.000
54.074     615.000
54.089     624.000
54.103     603.000
54.118     630.000
54.132     605.000
54.147     637.000
54.161     694.000
54.176     663.000
54.190     668.000
54.205     702.000
54.219     724.000
54.234     698.000
54.248     702.000
54.263     649.000
54.277     693.000
54.292     613.000
54.306     649.000
54.321     633.000
54.335     599.000
54.350     621.000
54.364     594.000
54.379     593.000
54.393     544.000
54.407     528.000
54.422     558.000
54.436     573.000
54.451     561.000
54.465     531.000
54.480     550.000
54.494     536.000
54.509     525.000
54.523     549.000
54.538     576.000
54.552     524.000
54.567     539.000
54.581     548.000
54.596     604.000
54.610     567.000
54.625     577.000
54.639     561.000
54.654     634.000
54.668     623.000
54.683     629.000
54.697     721.000
54.712     670.000
54.726     707.000
54.741     607.000
54.755     623.000
54.770     600.000
54.784     672.000
54.799     606.000
54.813     606.000
54.828     604.000
54.842     569.000
54.857     566.000
54.871     580.000
54.886     544.000
54.900     567.000
54.915     581.000
54.929     546.000
54.944     550.000
54.958     561.000
54.973     525.000
54.987     506.000
55.002     535.000
55.016     511.000
55.031     539.000
55.045     573.000
55.059     572.000
55.074     589.000
55.088     635.000
55.103     604.000
55.117     587.000
55.132     594.000
55.146     556.000
55.161     559.000
55.175     586.000
55.190     519.000
55.204     578.000
55.219     592.000
55.233     578.000
55.248     545.000
55.262     523.000
55.277     573.000
55.291     537.000
55.306     537.000
55.320     540.000
55.335     563.000
55.349     528.000
55.364     602.000
55.378     572.000
55.393     540.000
55.407     535.000
55.422     580.000
55.436     554.000
55.451     548.000
55.465     536.000
55.480     559.000
55.494     567.000
55.509     573.000
55.523     582.000
55.538     561.000
55.552     579.000
55.567     589.000
55.581     622.000
55.596     582.000
55.610     605.000
55.625     628.000
55.639     615.000
55.654     648.000
55.668     613.000
55.683     615.000
55.697     678.000
55.711     647.000
55.726     681.000
55.740     601.000
55.755     605.000
55.769     643.000
55.784     612.000
55.798     628.000
55.813     614.000
55.827     554.000
55.842     627.000
55.856     656.000
55.871     593.000
55.885     558.000
55.900     613.000
55.914     618.000
55.929     622.000
55.943     603.000
55.958     595.000
55.972     557.000
55.987     571.000
56.001     636.000
56.016     586.000
56.030     603.000
56.045     643.000
56.059     678.000
56.074     627.000
56.088     595.000
56.103     676.000
56.117     652.000
56.132     689.000
56.146     696.000
56.161     759.000
56.175     824.000
56.190     790.000
56.204     808.000
56.219     804.000
56.233     831.000
56.248     771.000
56.262     781.000
56.277     725.000
56.291     720.000
56.306     656.000
56.320     649.000
56.335     647.000
56.349     611.000
56.364     589.000
56.378     573.000
56.392     603.000
56.407     574.000
56.421     585.000
56.436     546.000
56.450     567.000
56.465     612.000
56.479     581.000
56.494     602.000
56.508     613.000
56.523     572.000
56.537     621.000
56.552     664.000
56.566     669.000
56.581     753.000
56.595     712.000
56.610     737.000
56.624     773.000
56.639     773.000
56.653     776.000
56.668     832.000
56.682     745.000
56.697     723.000
56.711     729.000
56.726     780.000
56.740     703.000
56.755     697.000
56.769     590.000
56.784     633.000
56.798     656.000
56.813     584.000
56.827     609.000
56.842     580.000
56.856     554.000
56.871     540.000
56.885     538.000
56.900     516.000
56.914     538.000
56.929     582.000
56.943     587.000
56.958     577.000
56.972     530.000
56.987     561.000
57.001     563.000
57.016     566.000
57.030     549.000
57.044     568.000
57.059     534.000
57.073     508.000
57.088     575.000
57.102     573.000
57.117     590.000
57.131     616.000
57.146     517.000
57.160     530.000
57.175     544.000
57.189     567.000
57.204     554.000
57.218     538.000
57.233     503.000
57.247     579.000
57.262     538.000
57.276     548.000
57.291     565.000
57.305     523.000
57.320     539.000
57.334     594.000
57.349     550.000
57.363     478.000
57.378     582.000
57.392     552.000
57.407     552.000
57.421     569.000
57.436     489.000
57.450     602.000
57.465     532.000
57.479     612.000
57.494     606.000
57.508     629.000
57.523     641.000
57.537     679.000
57.552     647.000
57.566     632.000
57.581     620.000
57.595     659.000
57.610     639.000
57.624     675.000
57.639     622.000
57.653     652.000
57.668     617.000
57.682     672.000
57.696     612.000
57.711     585.000
57.725     600.000
57.740     607.000
57.754     646.000
57.769     582.000
57.783     574.000
57.798     571.000
57.812     631.000
57.827     594.000
57.841     695.000
57.856     646.000
57.870     701.000
57.885     700.000
57.899     722.000
57.914     765.000
57.928     799.000
57.943     790.000
57.957     862.000
57.972     847.000
57.986     894.000
58.001     828.000
58.015     867.000
58.030     905.000
58.044     816.000
58.059     840.000
58.073     828.000
58.088     827.000
58.102     780.000
58.117     732.000
58.131     718.000
58.146     702.000
58.160     730.000
58.175     741.000
58.189     694.000
58.204     665.000
58.218     656.000
58.233     641.000
58.247     639.000
58.262     646.000
58.276     636.000
58.291     669.000
58.305     667.000
58.320     714.000
58.334     680.000
58.348     766.000
58.363     742.000
58.377     765.000
58.392     786.000
58.406     800.000
58.421     825.000
58.435     796.000
58.450     812.000
58.464     775.000
58.479     775.000
58.493     769.000
58.508     768.000
58.522     796.000
58.537     737.000
58.551     728.000
58.566     687.000
58.580     674.000
58.595     731.000
58.609     639.000
58.624     654.000
58.638     655.000
58.653     598.000
58.667     599.000
58.682     627.000
58.696     583.000
58.711     577.000
58.725     621.000
58.740     578.000
58.754     593.000
58.769     575.000
58.783     546.000
58.798     577.000
58.812     576.000
58.827     573.000
58.841     547.000
58.856     609.000
58.870     642.000
58.885     642.000
58.899     680.000
58.914     683.000
58.928     723.000
58.943     677.000
58.957     657.000
58.972     681.000
58.986     717.000
59.001     709.000
59.015     713.000
59.029     707.000
59.044     659.000
59.058     633.000
59.073     660.000
59.087     584.000
59.102     619.000
59.116     580.000
59.131     597.000
59.145     607.000
59.160     531.000
59.174     598.000
59.189     593.000
59.203     631.000
59.218     590.000
59.232     587.000
59.247     616.000
59.261     604.000
59.276     596.000
59.290     627.000
59.305     592.000
59.319     561.000
59.334     585.000
59.348     605.000
59.363     586.000
59.377     601.000
59.392     658.000
59.406     639.000
59.421     661.000
59.435     688.000
59.450     665.000
59.464     684.000
59.479     677.000
59.493     669.000
59.508     771.000
59.522     758.000
59.537     781.000
59.551     765.000
59.566     788.000
59.580     768.000
59.595     722.000
59.609     782.000
59.624     752.000
59.638     715.000
59.653     656.000
59.667     733.000
59.681     715.000
59.696     642.000
59.710     669.000
59.725     658.000
59.739     661.000
59.754     737.000
59.768     672.000
59.783     731.000
59.797     734.000
59.812     717.000
59.826     732.000
59.841     735.000
59.855     759.000
59.870     742.000
59.884     678.000
59.899     707.000
59.913     649.000
59.928     625.000
59.942     623.000
59.957     610.000
59.971     638.000
59.986     608.000
60.000     579.000
60.015     558.000
60.029     552.000
60.044     581.000
60.058     536.000
60.073     490.000
60.087     515.000
60.102     508.000
60.116     579.000
60.131     513.000
60.145     524.000
60.160     593.000
60.174     513.000
60.189     542.000
60.203     555.000
60.218     526.000
60.232     535.000
60.247     532.000
60.261     560.000
60.276     551.000
60.290     563.000
60.305     561.000
60.319     556.000
60.333     623.000
60.348     605.000
60.362     621.000
60.377     559.000
60.391     559.000
60.406     570.000
60.420     539.000
60.435     593.000
60.449     522.000
60.464     568.000
60.478     567.000
60.493     534.000
60.507     538.000
60.522     561.000
60.536     618.000
60.551     575.000
60.565     551.000
60.580     574.000
60.594     588.000
60.609     616.000
60.623     617.000
60.638     600.000
60.652     636.000
60.667     638.000
60.681     668.000
60.696     712.000
60.710     663.000
60.725     644.000
60.739     642.000
60.754     679.000
60.768     592.000
60.783     596.000
60.797     617.000
60.812     616.000
60.826     537.000
60.841     612.000
60.855     632.000
60.870     638.000
60.884     581.000
60.899     529.000
60.913     578.000
60.928     537.000
60.942     582.000
60.957     572.000
60.971     539.000
60.985     534.000
61.000     546.000
61.014     535.000
61.029     578.000
61.043     557.000
61.058     567.000
61.072     581.000
61.087     549.000
61.101     526.000
61.116     564.000
61.130     569.000
61.145     581.000
61.159     618.000
61.174     589.000
61.188     571.000
61.203     604.000
61.217     641.000
61.232     655.000
61.246     676.000
61.261     607.000
61.275     631.000
61.290     630.000
61.304     644.000
61.319     618.000
61.333     650.000
61.348     652.000
61.362     596.000
61.377     581.000
61.391     576.000
61.406     559.000
61.420     555.000
61.435     554.000
61.449     577.000
61.464     518.000
61.478     576.000
61.493     591.000
61.507     506.000
61.522     575.000
61.536     580.000
61.551     542.000
61.565     525.000
61.580     526.000
61.594     531.000
61.609     546.000
61.623     554.000
61.638     580.000
61.652     517.000
61.666     555.000
61.681     593.000
61.695     574.000
61.710     528.000
61.724     545.000
61.739     539.000
61.753     567.000
61.768     567.000
61.782     560.000
61.797     564.000
61.811     569.000
61.826     590.000
61.840     550.000
61.855     531.000
61.869     548.000
61.884     627.000
61.898     561.000
61.913     566.000
61.927     551.000
61.942     571.000
61.956     560.000
61.971     590.000
61.985     611.000
62.000     578.000
62.014     590.000
62.029     621.000
62.043     577.000
62.058     622.000
62.072     612.000
62.087     616.000
62.101     666.000
62.116     658.000
62.130     613.000
62.145     598.000
62.159     633.000
62.174     641.000
62.188     643.000
62.203     662.000
62.217     673.000
62.232     632.000
62.246     681.000
62.261     622.000
62.275     652.000
62.290     651.000
62.304     685.000
62.318     585.000
62.333     626.000
62.347     610.000
62.362     618.000
62.376     604.000
62.391     574.000
62.405     557.000
62.420     610.000
62.434     542.000
62.449     551.000
62.463     529.000
62.478     526.000
62.492     518.000
62.507     546.000
62.521     541.000
62.536     572.000
62.550     535.000
62.565     563.000
62.579     558.000
62.594     564.000
62.608     539.000
62.623     573.000
62.637     545.000
62.652     518.000
62.666     511.000
62.681     531.000
62.695     551.000
62.710     571.000
62.724     544.000
62.739     528.000
62.753     532.000
62.768     517.000
62.782     515.000
62.797     528.000
62.811     548.000
62.826     536.000
62.840     566.000
62.855     548.000
62.869     543.000
62.884     519.000
62.898     564.000
62.913     555.000
62.927     565.000
62.942     571.000
62.956     522.000
62.970     535.000
62.985     532.000
62.999     546.000
63.014     498.000
63.028     566.000
63.043     524.000
63.057     527.000
63.072     523.000
63.086     548.000
63.101     537.000
63.115     528.000
63.130     601.000
63.144     527.000
63.159     548.000
63.173     564.000
63.188     555.000
63.202     556.000
63.217     607.000
63.231     558.000
63.246     610.000
63.260     607.000
63.275     553.000
63.289     601.000
63.304     632.000
63.318     633.000
63.333     679.000
63.347     663.000
63.362     648.000
63.376     640.000
63.391     665.000
63.405     704.000
63.420     689.000
63.434     710.000
63.449     736.000
63.463     735.000
63.478     732.000
63.492     678.000
63.507     700.000
63.521     687.000
63.536     706.000
63.550     688.000
63.565     689.000
63.579     678.000
63.594     653.000
63.608     655.000
63.622     629.000
63.637     650.000
63.651     657.000
63.666     637.000
63.680     667.000
63.695     590.000
63.709     638.000
63.724     588.000
63.738     542.000
63.753     614.000
63.767     600.000
63.782     566.000
63.796     608.000
63.811     582.000
63.825     577.000
63.840     587.000
63.854     593.000
63.869     669.000
63.883     690.000
63.898     656.000
63.912     669.000
63.927     689.000
63.941     668.000
63.956     754.000
63.970     739.000
63.985     679.000
63.999     718.000
64.014     647.000
64.028     696.000
64.043     635.000
64.057     628.000
64.072     601.000
64.086     614.000
64.101     620.000
64.115     631.000
64.130     603.000
64.144     575.000
64.159     562.000
64.173     566.000
64.188     543.000
64.202     555.000
64.217     515.000
64.231     565.000
64.246     554.000
64.260     557.000
64.274     522.000
64.289     531.000
64.303     504.000
64.318     564.000
64.332     575.000
64.347     541.000
64.361     571.000
64.376     539.000
64.390     596.000
64.405     589.000
64.419     610.000
64.434     649.000
64.448     644.000
64.463     575.000
64.477     617.000
64.492     588.000
64.506     603.000
64.521     557.000
64.535     581.000
64.550     566.000
64.564     600.000
64.579     563.000
64.593     565.000
64.608     566.000
64.622     530.000
64.637     587.000
64.651     529.000
64.666     551.000
64.680     511.000
64.695     553.000
64.709     530.000
64.724     532.000
64.738     496.000
64.753     568.000
64.767     542.000
64.782     540.000
64.796     559.000
64.811     546.000
64.825     552.000
64.840     513.000
64.854     535.000
64.869     500.000
64.883     523.000
64.898     555.000
64.912     565.000
64.927     568.000
64.941     583.000
64.955     550.000
