 5.000    7316.000
 5.014    7276.000
 5.029    7407.000
 5.043    7314.000
 5.058    7201.000
 5.072    7156.000
 5.087    7243.000
 5.101    7103.000
 5.116    7231.000
 5.130    7223.000
 5.145    7251.000
 5.159    7184.000
 5.174    7204.000
 5.188    7283.000
 5.203    7163.000
 5.217    7091.000
 5.232    7163.000
 5.246    7026.000
 5.261    7024.000
 5.275    6984.000
 5.290    7064.000
 5.304    7019.000
 5.319    7130.000
 5.333    6942.000
 5.348    7070.000
 5.362    7096.000
 5.377    7048.000
 5.391    7063.000
 5.406    6941.000
 5.420    7058.000
 5.435    6961.000
 5.449    6891.000
 5.464    6704.000
 5.478    6772.000
 5.493    6917.000
 5.507    6897.000
 5.522    6934.000
 5.536    6865.000
 5.551    6918.000
 5.565    6722.000
 5.580    6743.000
 5.594    6901.000
 5.609    6647.000
 5.623    6964.000
 5.638    6766.000
 5.652    6830.000
 5.666    6689.000
 5.681    6756.000
 5.695    6783.000
 5.710    6648.000
 5.724    6635.000
 5.739    6586.000
 5.753    6552.000
 5.768    6766.000
 5.782    6535.000
 5.797    6606.000
 5.811    6460.000
 5.826    6507.000
 5.840    6614.000
 5.855    6571.000
 5.869    6520.000
 5.884    6585.000
 5.898    6375.000
 5.913    6619.000
 5.927    6502.000
 5.942    6524.000
 5.956    6374.000
 5.971    6372.000
 5.985    6350.000
 6.000    6356.000
 6.014    6448.000
 6.029    6445.000
 6.043    6225.000
 6.058    6390.000
 6.072    6380.000
 6.087    6219.000
 6.101    6304.000
 6.116    6270.000
 6.130    6110.000
 6.145    6195.000
 6.159    6226.000
 6.174    6350.000
 6.188    6330.000
 6.203    6335.000
 6.217    6197.000
 6.232    6160.000
 6.246    6321.000
 6.261    6198.000
 6.275    6083.000
 6.290    6089.000
 6.304    6190.000
 6.318    6181.000
 6.333    6130.000
 6.347    6071.000
 6.362    6206.000
 6.376    6019.000
 6.391    6071.000
 6.405    5947.000
 6.420    5985.000
 6.434    6023.000
 6.449    6022.000
 6.463    6023.000
 6.478    6027.000
 6.492    6034.000
 6.507    6127.000
 6.521    5982.000
 6.536    5965.000
 6.550    5889.000
 6.565    6040.000
 6.579    5989.000
 6.594    5901.000
 6.608    5865.000
 6.623    5833.000
 6.637    5809.000
 6.652    5795.000
 6.666    5806.000
 6.681    5711.000
 6.695    5991.000
 6.710    5795.000
 6.724    5831.000
 6.739    5675.000
 6.753    5748.000
 6.768    5892.000
 6.782    5695.000
 6.797    5690.000
 6.811    5737.000
 6.826    5842.000
 6.840    5482.000
 6.855    5739.000
 6.869    5595.000
 6.884    5628.000
 6.898    5643.000
 6.913    5591.000
 6.927    5751.000
 6.942    5571.000
 6.956    5522.000
 6.971    5734.000
 6.985    5438.000
 6.999    5590.000
 7.014    5559.000
 7.028    5444.000
 7.043    5503.000
 7.057    5602.000
 7.072    5346.000
 7.086    5567.000
 7.101    5422.000
 7.115    5452.000
 7.130    5510.000
 7.144    5310.000
 7.159    5406.000
 7.173    5423.000
 7.188    5302.000
 7.202    5551.000
 7.217    5378.000
 7.231    5326.000
 7.246    5430.000
 7.260    5477.000
 7.275    5303.000
 7.289    5283.000
 7.304    5273.000
 7.318    5181.000
 7.333    5268.000
 7.347    5281.000
 7.362    5227.000
 7.376    5234.000
 7.391    5089.000
 7.405    5156.000
 7.420    5175.000
 7.434    5238.000
 7.449    5216.000
 7.463    5201.000
 7.478    5111.000
 7.492    5040.000
 7.507    5128.000
 7.521    5109.000
 7.536    5000.000
 7.550    5219.000
 7.565    5088.000
 7.579    4952.000
 7.594    4926.000
 7.608    5031.000
 7.623    5212.000
 7.637    4976.000
 7.651    4982.000
 7.666    5060.000
 7.680    5008.000
 7.695    4869.000
 7.709    4995.000
 7.724    4851.000
 7.738    4951.000
 7.753    4970.000
 7.767    4961.000
 7.782    5030.000
 7.796    4861.000
 7.811    4901.000
 7.825    4991.000
 7.840    4763.000
 7.854    4776.000
 7.869    4831.000
 7.883    4795.000
 7.898    4905.000
 7.912    4781.000
 7.927    4645.000
 7.941    4841.000
 7.956    4883.000
 7.970    4658.000
 7.985    4691.000
 7.999    4811.000
 8.014    4715.000
 8.028    4683.000
 8.043    4779.000
 8.057    4537.000
 8.072    4660.000
 8.086    4656.000
 8.101    4705.000
 8.115    4694.000
 8.130    4539.000
 8.144    4622.000
 8.159    4694.000
 8.173    4533.000
 8.188    4507.000
 8.202    4497.000
 8.217    4490.000
 8.231    4604.000
 8.246    4463.000
 8.260    4534.000
 8.275    4551.000
 8.289    4452.000
 8.303    4501.000
 8.318    4532.000
 8.332    4603.000
 8.347    4336.000
 8.361    4475.000
 8.376    4516.000
 8.390    4297.000
 8.405    4469.000
 8.419    4442.000
 8.434    4414.000
 8.448    4404.000
 8.463    4383.000
 8.477    4376.000
 8.492    4356.000
 8.506    4368.000
 8.521    4325.000
 8.535    4388.000
 8.550    4274.000
 8.564    4294.000
 8.579    4202.000
 8.593    4259.000
 8.608    4400.000
 8.622    4282.000
 8.637    4203.000
 8.651    4302.000
 8.666    4212.000
 8.680    4200.000
 8.695    4245.000
 8.709    4185.000
 8.724    4276.000
 8.738    4164.000
 8.753    4268.000
 8.767    4313.000
 8.782    4117.000
 8.796    4151.000
 8.811    4135.000
 8.825    4167.000
 8.840    4128.000
 8.854    4202.000
 8.869    4132.000
 8.883    4120.000
 8.898    4124.000
 8.912    3977.000
 8.927    4138.000
 8.941    4065.000
 8.955    4087.000
 8.970    4115.000
 8.984    3998.000
 8.999    4066.000
 9.013    3966.000
 9.028    4115.000
 9.042    3996.000
 9.057    3937.000
 9.071    4084.000
 9.086    3980.000
 9.100    4033.000
 9.115    3979.000
 9.129    3983.000
 9.144    3945.000
 9.158    3930.000
 9.173    4035.000
 9.187    4033.000
 9.202    3999.000
 9.216    3944.000
 9.231    3955.000
 9.245    3985.000
 9.260    3931.000
 9.274    3952.000
 9.289    3932.000
 9.303    3967.000
 9.318    3972.000
 9.332    3842.000
 9.347    4083.000
 9.361    3886.000
 9.376    3898.000
 9.390    3851.000
 9.405    3975.000
 9.419    4015.000
 9.434    3947.000
 9.448    3821.000
 9.463    3878.000
 9.477    3989.000
 9.492    3789.000
 9.506    3837.000
 9.521    3928.000
 9.535    3794.000
 9.550    3878.000
 9.564    3854.000
 9.579    3895.000
 9.593    3861.000
 9.608    3890.000
 9.622    3870.000
 9.636    3774.000
 9.651    3763.000
 9.665    3789.000
 9.680    3912.000
 9.694    3828.000
 9.709    3906.000
 9.723    3747.000
 9.738    3788.000
 9.752    3773.000
 9.767    3734.000
 9.781    3766.000
 9.796    3748.000
 9.810    3792.000
 9.825    3826.000
 9.839    3642.000
 9.854    3808.000
 9.868    3785.000
 9.883    3785.000
 9.897    3812.000
 9.912    3694.000
 9.926    3817.000
 9.941    3679.000
 9.955    3742.000
 9.970    3746.000
 9.984    3748.000
 9.999    3657.000
10.013    3682.000
10.028    3719.000
10.042    3762.000
10.057    3775.000
10.071    3684.000
10.086    3693.000
10.100    3606.000
10.115    3834.000
10.129    3785.000
10.144    3676.000
10.158    3721.000
10.173    3786.000
10.187    3661.000
10.202    3704.000
10.216    3689.000
10.231    3677.000
10.245    3846.000
10.260    3761.000
10.274    3775.000
10.288    3722.000
10.303    3757.000
10.317    3819.000
10.332    3862.000
10.346    3794.000
10.361    3908.000
10.375    3983.000
10.390    4004.000
10.404    3941.000
10.419    4085.000
10.433    4126.000
10.448    4341.000
10.462    4445.000
10.477    4598.000
10.491    4809.000
10.506    5147.000
10.520    5533.000
10.535    6049.000
10.549    6494.000
10.564    7322.000
10.578    8482.000
10.593    9860.000
10.607   10724.000
10.622   10955.000
10.636    9523.000
10.651    7752.000
10.665    6088.000
10.680    4751.000
10.694    4269.000
10.709    4121.000
10.723    3901.000
10.738    3709.000
10.752    3642.000
10.767    3690.000
10.781    3641.000
10.796    3611.000
10.810    3437.000
10.825    3615.000
10.839    3676.000
10.854    3541.000
10.868    3641.000
10.883    3505.000
10.897    3510.000
10.912    3517.000
10.926    3521.000
10.940    3605.000
10.955    3528.000
10.969    3491.000
10.984    3504.000
10.998    3578.000
11.013    3539.000
11.027    3512.000
11.042    3357.000
11.056    3453.000
11.071    3429.000
11.085    3590.000
11.100    3520.000
11.114    3438.000
11.129    3444.000
11.143    3479.000
11.158    3542.000
11.172    3532.000
11.187    3445.000
11.201    3456.000
11.216    3381.000
11.230    3346.000
11.245    3399.000
11.259    3423.000
11.274    3462.000
11.288    3439.000
11.303    3444.000
11.317    3481.000
11.332    3347.000
11.346    3451.000
11.361    3392.000
11.375    3434.000
11.390    3431.000
11.404    3378.000
11.419    3405.000
11.433    3344.000
11.448    3470.000
11.462    3365.000
11.477    3467.000
11.491    3351.000
11.506    3426.000
11.520    3412.000
11.535    3375.000
11.549    3401.000
11.564    3326.000
11.578    3407.000
11.592    3281.000
11.607    3332.000
11.621    3444.000
11.636    3398.000
11.650    3365.000
11.665    3410.000
11.679    3266.000
11.694    3308.000
11.708    3358.000
11.723    3320.000
11.737    3438.000
11.752    3303.000
11.766    3406.000
11.781    3257.000
11.795    3316.000
11.810    3320.000
11.824    3362.000
11.839    3357.000
11.853    3268.000
11.868    3379.000
11.882    3285.000
11.897    3356.000
11.911    3331.000
11.926    3410.000
11.940    3261.000
11.955    3326.000
11.969    3385.000
11.984    3313.000
11.998    3379.000
12.013    3227.000
12.027    3291.000
12.042    3245.000
12.056    3267.000
12.071    3292.000
12.085    3250.000
12.100    3362.000
12.114    3354.000
12.129    3359.000
12.143    3281.000
12.158    3223.000
12.172    3364.000
12.187    3282.000
12.201    3281.000
12.216    3235.000
12.230    3253.000
12.245    3388.000
12.259    3222.000
12.273    3278.000
12.288    3236.000
12.302    3318.000
12.317    3273.000
12.331    3265.000
12.346    3310.000
12.360    3368.000
12.375    3182.000
12.389    3315.000
12.404    3277.000
12.418    3217.000
12.433    3255.000
12.447    3195.000
12.462    3078.000
12.476    3254.000
12.491    3161.000
12.505    3236.000
12.520    3223.000
12.534    3276.000
12.549    3284.000
12.563    3271.000
12.578    3309.000
12.592    3221.000
12.607    3168.000
12.621    3321.000
12.636    3287.000
12.650    3307.000
12.665    3152.000
12.679    3094.000
12.694    3299.000
12.708    3184.000
12.723    3215.000
12.737    3143.000
12.752    3213.000
12.766    3207.000
12.781    3190.000
12.795    3210.000
12.810    3170.000
12.824    3134.000
12.839    3107.000
12.853    3183.000
12.868    3103.000
12.882    3245.000
12.897    3224.000
12.911    3191.000
12.925    3176.000
12.940    3154.000
12.954    3192.000
12.969    3224.000
12.983    3172.000
12.998    3226.000
13.012    3269.000
13.027    3203.000
13.041    3252.000
13.056    3105.000
13.070    3126.000
13.085    3112.000
13.099    3106.000
13.114    3105.000
13.128    3037.000
13.143    3171.000
13.157    3212.000
13.172    3225.000
13.186    3123.000
13.201    3256.000
13.215    3257.000
13.230    3166.000
13.244    3208.000
13.259    3233.000
13.273    3237.000
13.288    3170.000
13.302    3261.000
13.317    3148.000
13.331    3146.000
13.346    3160.000
13.360    3077.000
13.375    3162.000
13.389    3119.000
13.404    3116.000
13.418    3186.000
13.433    3172.000
13.447    3212.000
13.462    3246.000
13.476    3330.000
13.491    3116.000
13.505    3214.000
13.520    3236.000
13.534    3190.000
13.549    3254.000
13.563    3238.000
13.577    3170.000
13.592    3258.000
13.606    3229.000
13.621    3283.000
13.635    3167.000
13.650    3281.000
13.664    3256.000
13.679    3376.000
13.693    3437.000
13.708    3449.000
13.722    3631.000
13.737    3859.000
13.751    3818.000
13.766    4071.000
13.780    4371.000
13.795    4687.000
13.809    5081.000
13.824    5510.000
13.838    6482.000
13.853    7568.000
13.867    9161.000
13.882   11211.000
13.896   13167.000
13.911   13882.000
13.925   12640.000
13.940   10205.000
13.954    7523.000
13.969    5591.000
13.983    4474.000
13.998    3759.000
14.012    3474.000
14.027    3358.000
14.041    3384.000
14.056    3285.000
14.070    3178.000
14.085    3311.000
14.099    3352.000
14.114    3190.000
14.128    3185.000
14.143    3197.000
14.157    3185.000
14.172    3165.000
14.186    3175.000
14.201    3109.000
14.215    3161.000
14.229    3051.000
14.244    3185.000
14.258    3185.000
14.273    3197.000
14.287    3181.000
14.302    3240.000
14.316    3122.000
14.331    3063.000
14.345    3197.000
14.360    3129.000
14.374    3216.000
14.389    3081.000
14.403    3102.000
14.418    3164.000
14.432    3086.000
14.447    3045.000
14.461    3049.000
14.476    3163.000
14.490    3138.000
14.505    3068.000
14.519    3174.000
14.534    3166.000
14.548    3144.000
14.563    3122.000
14.577    3156.000
14.592    3108.000
14.606    3180.000
14.621    3087.000
14.635    3147.000
14.650    3195.000
14.664    3075.000
14.679    3119.000
14.693    3074.000
14.708    3156.000
14.722    3103.000
14.737    3095.000
14.751    3106.000
14.766    3135.000
14.780    3138.000
14.795    3121.000
14.809    3160.000
14.824    3072.000
14.838    3157.000
14.853    3118.000
14.867    3141.000
14.881    3100.000
14.896    3108.000
14.910    3153.000
14.925    3112.000
14.939    3103.000
14.954    3167.000
14.968    3185.000
14.983    3210.000
14.997    3104.000
15.012    3192.000
15.026    3063.000
15.041    3053.000
15.055    3176.000
15.070    3133.000
15.084    3149.000
15.099    3097.000
15.113    3126.000
15.128    3127.000
15.142    3057.000
15.157    3096.000
15.171    3111.000
15.186    3200.000
15.200    3061.000
15.215    3094.000
15.229    3026.000
15.244    3089.000
15.258    3116.000
15.273    3081.000
15.287    3083.000
15.302    3100.000
15.316    3203.000
15.331    3259.000
15.345    3064.000
15.360    3106.000
15.374    3102.000
15.389    3211.000
15.403    3176.000
15.418    3184.000
15.432    3166.000
15.447    3203.000
15.461    3243.000
15.476    3138.000
15.490    3141.000
15.505    3207.000
15.519    3235.000
15.534    3234.000
15.548    3153.000
15.562    3310.000
15.577    3117.000
15.591    3188.000
15.606    3097.000
15.620    3171.000
15.635    3156.000
15.649    3193.000
15.664    3213.000
15.678    3228.000
15.693    3284.000
15.707    3259.000
15.722    3200.000
15.736    3284.000
15.751    3252.000
15.765    3360.000
15.780    3313.000
15.794    3401.000
15.809    3336.000
15.823    3432.000
15.838    3571.000
15.852    3531.000
15.867    3576.000
15.881    3791.000
15.896    3801.000
15.910    4086.000
15.925    4303.000
15.939    4477.000
15.954    5151.000
15.968    5438.000
15.983    6365.000
15.997    6969.000
16.012    8605.000
16.026   10437.000
16.041   12840.000
16.055   15605.000
16.070   18000.000
16.084   18675.000
16.099   17183.000
16.113   13910.000
16.128   10222.000
16.142    7321.000
16.157    5693.000
16.171    4797.000
16.186    4107.000
16.200    3791.000
16.214    3792.000
16.229    3617.000
16.243    3538.000
16.258    3478.000
16.272    3499.000
16.287    3243.000
16.301    3552.000
16.316    3379.000
16.330    3393.000
16.345    3281.000
16.359    3423.000
16.374    3483.000
16.388    3511.000
16.403    3358.000
16.417    3331.000
16.432    3350.000
16.446    3378.000
16.461    3480.000
16.475    3392.000
16.490    3483.000
16.504    3405.000
16.519    3444.000
16.533    3421.000
16.548    3552.000
16.562    3579.000
16.577    3567.000
16.591    3433.000
16.606    3384.000
16.620    3349.000
16.635    3415.000
16.649    3321.000
16.664    3391.000
16.678    3437.000
16.693    3513.000
16.707    3399.000
16.722    3420.000
16.736    3418.000
16.751    3394.000
16.765    3476.000
16.780    3406.000
16.794    3544.000
16.809    3450.000
16.823    3337.000
16.838    3327.000
16.852    3422.000
16.866    3398.000
16.881    3394.000
16.895    3517.000
16.910    3362.000
16.924    3542.000
16.939    3490.000
16.953    3431.000
16.968    3373.000
16.982    3363.000
16.997    3526.000
17.011    3559.000
17.026    3532.000
17.040    3560.000
17.055    3668.000
17.069    3535.000
17.084    3681.000
17.098    3727.000
17.113    3580.000
17.127    3718.000
17.142    3656.000
17.156    3655.000
17.171    3711.000
17.185    3874.000
17.200    3969.000
17.214    3962.000
17.229    3938.000
17.243    4083.000
17.258    4281.000
17.272    4443.000
17.287    4646.000
17.301    4914.000
17.316    5262.000
17.330    5577.000
17.345    6215.000
17.359    6930.000
17.374    7605.000
17.388    8691.000
17.403   10306.000
17.417   12029.000
17.432   14634.000
17.446   18262.000
17.461   23263.000
17.475   29762.000
17.490   38654.000
17.504   50995.000
17.518   62804.000
17.533   71422.000
17.547   72346.000
17.562   63269.000
17.576   47791.000
17.591   32183.000
17.605   20839.000
17.620   13982.000
17.634    9975.000
17.649    7895.000
17.663    6558.000
17.678    5614.000
17.692    5234.000
17.707    4863.000
17.721    4801.000
17.736    4406.000
17.750    4446.000
17.765    4244.000
17.779    4117.000
17.794    3937.000
17.808    4029.000
17.823    3935.000
17.837    4024.000
17.852    3872.000
17.866    3921.000
17.881    3950.000
17.895    3835.000
17.910    3800.000
17.924    3847.000
17.939    3807.000
17.953    3764.000
17.968    3857.000
17.982    3829.000
17.997    3851.000
18.011    3776.000
18.026    3894.000
18.040    3721.000
18.055    3810.000
18.069    3751.000
18.084    3815.000
18.098    3747.000
18.113    3674.000
18.127    3738.000
18.142    3721.000
18.156    3726.000
18.171    3723.000
18.185    3729.000
18.199    3796.000
18.214    3686.000
18.228    3864.000
18.243    3819.000
18.257    3766.000
18.272    3823.000
18.286    3635.000
18.301    3723.000
18.315    3685.000
18.330    3817.000
18.344    3726.000
18.359    3735.000
18.373    3879.000
18.388    3727.000
18.402    3727.000
18.417    3802.000
18.431    3880.000
18.446    3698.000
18.460    3663.000
18.475    3800.000
18.489    3688.000
18.504    3681.000
18.518    3839.000
18.533    3791.000
18.547    3853.000
18.562    3790.000
18.576    3779.000
18.591    3717.000
18.605    3831.000
18.620    3770.000
18.634    3867.000
18.649    3919.000
18.663    3814.000
18.678    3808.000
18.692    3787.000
18.707    3757.000
18.721    3904.000
18.736    3763.000
18.750    3767.000
18.765    3873.000
18.779    3822.000
18.794    3872.000
18.808    3763.000
18.823    3846.000
18.837    3898.000
18.851    3843.000
18.866    3813.000
18.880    3905.000
18.895    3907.000
18.909    3853.000
18.924    3837.000
18.938    3761.000
18.953    3803.000
18.967    3896.000
18.982    3941.000
18.996    3980.000
19.011    3999.000
19.025    4135.000
19.040    3895.000
19.054    3917.000
19.069    3919.000
19.083    3922.000
19.098    3973.000
19.112    3946.000
19.127    3924.000
19.141    4007.000
19.156    4099.000
19.170    4029.000
19.185    3848.000
19.199    4090.000
19.214    3877.000
19.228    3968.000
19.243    3968.000
19.257    4002.000
19.272    3898.000
19.286    3964.000
19.301    3949.000
19.315    4009.000
19.330    4022.000
19.344    4016.000
19.359    3875.000
19.373    3866.000
19.388    3933.000
19.402    4027.000
19.417    4093.000
19.431    4102.000
19.446    4119.000
19.460    3957.000
19.475    4127.000
19.489    4057.000
19.503    3895.000
19.518    4082.000
19.532    4063.000
19.547    3993.000
19.561    4029.000
19.576    4109.000
19.590    4072.000
19.605    4151.000
19.619    4057.000
19.634    4131.000
19.648    4108.000
19.663    4034.000
19.677    4096.000
19.692    4163.000
19.706    4114.000
19.721    4057.000
19.735    4143.000
19.750    4073.000
19.764    4026.000
19.779    4061.000
19.793    4195.000
19.808    4164.000
19.822    4093.000
19.837    4170.000
19.851    4191.000
19.866    4038.000
19.880    4241.000
19.895    4151.000
19.909    4195.000
19.924    4136.000
19.938    4278.000
19.953    4193.000
19.967    4120.000
19.982    4231.000
19.996    4239.000
20.011    4187.000
20.025    4175.000
20.040    4112.000
20.054    4077.000
20.069    4262.000
20.083    4207.000
20.098    4236.000
20.112    4271.000
20.127    4276.000
20.141    4253.000
20.155    4229.000
20.170    4207.000
20.184    4228.000
20.199    4291.000
20.213    4232.000
20.228    4216.000
20.242    4294.000
20.257    4209.000
20.271    4442.000
20.286    4257.000
20.300    4218.000
20.315    4268.000
20.329    4233.000
20.344    4261.000
20.358    4346.000
20.373    4185.000
20.387    4268.000
20.402    4360.000
20.416    4214.000
20.431    4231.000
20.445    4387.000
20.460    4265.000
20.474    4244.000
20.489    4347.000
20.503    4327.000
20.518    4217.000
20.532    4266.000
20.547    4470.000
20.561    4309.000
20.576    4283.000
20.590    4350.000
20.605    4380.000
20.619    4303.000
20.634    4405.000
20.648    4418.000
20.663    4352.000
20.677    4413.000
20.692    4364.000
20.706    4369.000
20.721    4432.000
20.735    4308.000
20.750    4374.000
20.764    4413.000
20.779    4282.000
20.793    4290.000
20.807    4516.000
20.822    4501.000
20.836    4437.000
20.851    4462.000
20.865    4592.000
20.880    4502.000
20.894    4509.000
20.909    4436.000
20.923    4339.000
20.938    4459.000
20.952    4539.000
20.967    4536.000
20.981    4393.000
20.996    4449.000
21.010    4487.000
21.025    4459.000
21.039    4522.000
21.054    4391.000
21.068    4491.000
21.083    4579.000
21.097    4573.000
21.112    4594.000
21.126    4584.000
21.141    4678.000
21.155    4837.000
21.170    4686.000
21.184    5041.000
21.199    5186.000
21.213    5362.000
21.228    5771.000
21.242    6015.000
21.257    6637.000
21.271    7561.000
21.286    8690.000
21.300    9931.000
21.315   11364.000
21.329   11588.000
21.344   11168.000
21.358   10305.000
21.373    8852.000
21.387    7214.000
21.402    6339.000
21.416    5434.000
21.431    5305.000
21.445    5022.000
21.460    4879.000
21.474    4723.000
21.488    4621.000
21.503    4632.000
21.517    4588.000
21.532    4526.000
21.546    4643.000
21.561    4562.000
21.575    4471.000
21.590    4544.000
21.604    4464.000
21.619    4528.000
21.633    4409.000
21.648    4556.000
21.662    4485.000
21.677    4353.000
21.691    4534.000
21.706    4467.000
21.720    4485.000
21.735    4540.000
21.749    4482.000
21.764    4503.000
21.778    4375.000
21.793    4301.000
21.807    4512.000
21.822    4429.000
21.836    4516.000
21.851    4405.000
21.865    4599.000
21.880    4387.000
21.894    4482.000
21.909    4379.000
21.923    4474.000
21.938    4496.000
21.952    4509.000
21.967    4458.000
21.981    4541.000
21.996    4445.000
22.010    4403.000
22.025    4375.000
22.039    4481.000
22.054    4500.000
22.068    4530.000
22.083    4431.000
22.097    4364.000
22.112    4394.000
22.126    4419.000
22.140    4473.000
22.155    4432.000
22.169    4492.000
22.184    4353.000
22.198    4325.000
22.213    4380.000
22.227    4533.000
22.242    4435.000
22.256    4660.000
22.271    4564.000
22.285    4534.000
22.300    4674.000
22.314    4710.000
22.329    4895.000
22.343    4909.000
22.358    5194.000
22.372    5552.000
22.387    6053.000
22.401    6800.000
22.416    7326.000
22.430    8280.000
22.445    8514.000
22.459    8643.000
22.474    8019.000
22.488    7380.000
22.503    6451.000
22.517    5606.000
22.532    5102.000
22.546    4848.000
22.561    4600.000
22.575    4626.000
22.590    4463.000
22.604    4396.000
22.619    4376.000
22.633    4287.000
22.648    4404.000
22.662    4379.000
22.677    4349.000
22.691    4443.000
22.706    4324.000
22.720    4269.000
22.735    4331.000
22.749    4195.000
22.764    4205.000
22.778    4344.000
22.792    4268.000
22.807    4251.000
22.821    4206.000
22.836    4354.000
22.850    4175.000
22.865    4361.000
22.879    4363.000
22.894    4394.000
22.908    4348.000
22.923    4238.000
22.937    4233.000
22.952    4234.000
22.966    4211.000
22.981    4244.000
22.995    4301.000
23.010    4367.000
23.024    4444.000
23.039    4444.000
23.053    4620.000
23.068    4547.000
23.082    4545.000
23.097    4475.000
23.111    4642.000
23.126    4648.000
23.140    4406.000
23.155    4516.000
23.169    4246.000
23.184    4187.000
23.198    4230.000
23.213    4224.000
23.227    4257.000
23.242    4172.000
23.256    4164.000
23.271    4163.000
23.285    4200.000
23.300    4216.000
23.314    4058.000
23.329    4040.000
23.343    4095.000
23.358    4115.000
23.372    4120.000
23.387    4031.000
23.401    4076.000
23.416    4067.000
23.430    4110.000
23.444    4134.000
23.459    4071.000
23.473    4041.000
23.488    4106.000
23.502    3951.000
23.517    4050.000
23.531    4098.000
23.546    4131.000
23.560    4078.000
23.575    4167.000
23.589    4050.000
23.604    4061.000
23.618    3960.000
23.633    4103.000
23.647    4028.000
23.662    3982.000
23.676    4076.000
23.691    4204.000
23.705    4046.000
23.720    4018.000
23.734    4108.000
23.749    3896.000
23.763    3946.000
23.778    4087.000
23.792    4036.000
23.807    3984.000
23.821    4137.000
23.836    4019.000
23.850    4125.000
23.865    4084.000
23.879    4051.000
23.894    4082.000
23.908    3995.000
23.923    4060.000
23.937    4038.000
23.952    4025.000
23.966    3964.000
23.981    3983.000
23.995    4070.000
24.010    4023.000
24.024    4007.000
24.039    4206.000
24.053    4104.000
24.068    4081.000
24.082    4197.000
24.097    4176.000
24.111    4027.000
24.125    4201.000
24.140    4104.000
24.154    4067.000
24.169    4241.000
24.183    4157.000
24.198    4245.000
24.212    4388.000
24.227    4429.000
24.241    4484.000
24.256    4595.000
24.270    4758.000
24.285    4733.000
24.299    5029.000
24.314    5326.000
24.328    5665.000
24.343    5964.000
24.357    6583.000
24.372    7336.000
24.386    8409.000
24.401    9861.000
24.415   11636.000
24.430   14287.000
24.444   17847.000
24.459   21715.000
24.473   25618.000
24.488   27900.000
24.502   28633.000
24.517   26710.000
24.531   23147.000
24.546   19147.000
24.560   15134.000
24.575   11743.000
24.589    9499.000
24.604    8023.000
24.618    7069.000
24.633    6476.000
24.647    5918.000
24.662    5537.000
24.676    5319.000
24.691    5078.000
24.705    4806.000
24.720    4862.000
24.734    4740.000
24.749    4688.000
24.763    4523.000
24.777    4405.000
24.792    4530.000
24.806    4559.000
24.821    4446.000
24.835    4663.000
24.850    4451.000
24.864    4598.000
24.879    4596.000
24.893    4532.000
24.908    4575.000
24.922    4653.000
24.937    4882.000
24.951    5044.000
24.966    5287.000
24.980    5362.000
24.995    5734.000
25.009    6332.000
25.024    6554.000
25.038    7137.000
25.053    7979.000
25.067    9105.000
25.082   10264.000
25.096   12489.000
25.111   15070.000
25.125   18261.000
25.140   23618.000
25.154   29634.000
25.169   38397.000
25.183   47938.000
25.198   56385.000
25.212   63083.000
25.227   65054.000
25.241   61362.000
25.256   54108.000
25.270   43792.000
25.285   34539.000
25.299   26192.000
25.314   20089.000
25.328   15333.000
25.343   12397.000
25.357   10491.000
25.372    8880.000
25.386    7644.000
25.401    7131.000
25.415    6441.000
25.429    5941.000
25.444    5701.000
25.458    5412.000
25.473    5047.000
25.487    4853.000
25.502    4624.000
25.516    4646.000
25.531    4448.000
25.545    4479.000
25.560    4243.000
25.574    4282.000
25.589    4255.000
25.603    4194.000
25.618    4215.000
25.632    4175.000
25.647    4323.000
25.661    4388.000
25.676    4522.000
25.690    4586.000
25.705    4900.000
25.719    5351.000
25.734    5498.000
25.748    5912.000
25.763    5743.000
25.777    5549.000
25.792    5294.000
25.806    4874.000
25.821    4562.000
25.835    4299.000
25.850    3996.000
25.864    3831.000
25.879    3753.000
25.893    3630.000
25.908    3721.000
25.922    3575.000
25.937    3546.000
25.951    3528.000
25.966    3523.000
25.980    3460.000
25.995    3470.000
26.009    3382.000
26.024    3374.000
26.038    3468.000
26.053    3389.000
26.067    3329.000
26.081    3267.000
26.096    3374.000
26.110    3402.000
26.125    3312.000
26.139    3312.000
26.154    3329.000
26.168    3341.000
26.183    3217.000
26.197    3269.000
26.212    3342.000
26.226    3348.000
26.241    3251.000
26.255    3236.000
26.270    3231.000
26.284    3160.000
26.299    3251.000
26.313    3324.000
26.328    3444.000
26.342    3355.000
26.357    3297.000
26.371    3516.000
26.386    3575.000
26.400    3842.000
26.415    4065.000
26.429    4506.000
26.444    4838.000
26.458    5575.000
26.473    6262.000
26.487    7051.000
26.502    7752.000
26.516    7997.000
26.531    7932.000
26.545    7255.000
26.560    6649.000
26.574    5539.000
26.589    4915.000
26.603    4527.000
26.618    4118.000
26.632    3729.000
26.647    3568.000
26.661    3445.000
26.676    3271.000
26.690    3235.000
26.705    3223.000
26.719    3190.000
26.733    3100.000
26.748    3096.000
26.762    3108.000
26.777    3011.000
26.791    3106.000
26.806    3057.000
26.820    2958.000
26.835    3092.000
26.849    2979.000
26.864    3011.000
26.878    2915.000
26.893    2991.000
26.907    3068.000
26.922    3025.000
26.936    2942.000
26.951    2930.000
26.965    3037.000
26.980    2961.000
26.994    2937.000
27.009    3044.000
27.023    2972.000
27.038    2886.000
27.052    3056.000
27.067    2918.000
27.081    2881.000
27.096    3046.000
27.110    2881.000
27.125    2893.000
27.139    2918.000
27.154    2989.000
27.168    2902.000
27.183    2928.000
27.197    2965.000
27.212    2925.000
27.226    2847.000
27.241    2873.000
27.255    2911.000
27.270    2887.000
27.284    2870.000
27.299    2920.000
27.313    2932.000
27.328    3073.000
27.342    2974.000
27.357    2984.000
27.371    3048.000
27.386    3212.000
27.400    3105.000
27.414    3216.000
27.429    3246.000
27.443    3421.000
27.458    3500.000
27.472    3699.000
27.487    3732.000
27.501    4015.000
27.516    4360.000
27.530    4704.000
27.545    5129.000
27.559    5323.000
27.574    5607.000
27.588    5539.000
27.603    5527.000
27.617    5431.000
27.632    5305.000
27.646    5184.000
27.661    5297.000
27.675    5787.000
27.690    6101.000
27.704    6937.000
27.719    8196.000
27.733    9231.000
27.748   10897.000
27.762   12201.000
27.777   13105.000
27.791   13080.000
27.806   12979.000
27.820   11903.000
27.835   10580.000
27.849    9616.000
27.864    8121.000
27.878    6932.000
27.893    6053.000
27.907    5232.000
27.922    4918.000
27.936    4518.000
27.951    4467.000
27.965    4280.000
27.980    4388.000
27.994    4501.000
28.009    4667.000
28.023    4948.000
28.038    4976.000
28.052    5144.000
28.066    5155.000
28.081    5027.000
28.095    5059.000
28.110    5166.000
28.124    5289.000
28.139    5677.000
28.153    6122.000
28.168    7018.000
28.182    8198.000
28.197    9829.000
28.211   12186.000
28.226   15187.000
28.240   18813.000
28.255   22680.000
28.269   25877.000
28.284   27530.000
28.298   26978.000
28.313   24569.000
28.327   20926.000
28.342   17131.000
28.356   12976.000
28.371   10016.000
28.385    8117.000
28.400    6675.000
28.414    5531.000
28.429    4971.000
28.443    4474.000
28.458    4089.000
28.472    3872.000
28.487    3613.000
28.501    3455.000
28.516    3317.000
28.530    3124.000
28.545    3165.000
28.559    2948.000
28.574    3109.000
28.588    3013.000
28.603    2951.000
28.617    2864.000
28.632    2962.000
28.646    3089.000
28.661    3073.000
28.675    3184.000
28.690    3341.000
28.704    3433.000
28.718    3623.000
28.733    3798.000
28.747    3924.000
28.762    4065.000
28.776    3948.000
28.791    3870.000
28.805    3580.000
28.820    3375.000
28.834    3298.000
28.849    3022.000
28.863    2967.000
28.878    2791.000
28.892    2797.000
28.907    2800.000
28.921    2654.000
28.936    2715.000
28.950    2648.000
28.965    2643.000
28.979    2590.000
28.994    2558.000
29.008    2512.000
29.023    2414.000
29.037    2499.000
29.052    2520.000
29.066    2503.000
29.081    2544.000
29.095    2460.000
29.110    2570.000
29.124    2467.000
29.139    2607.000
29.153    2680.000
29.168    2797.000
29.182    2803.000
29.197    2938.000
29.211    2941.000
29.226    2844.000
29.240    2833.000
29.255    2726.000
29.269    2670.000
29.284    2579.000
29.298    2467.000
29.313    2335.000
29.327    2337.000
29.342    2301.000
29.356    2449.000
29.370    2355.000
29.385    2329.000
29.399    2373.000
29.414    2312.000
29.428    2259.000
29.443    2292.000
29.457    2344.000
29.472    2206.000
29.486    2247.000
29.501    2179.000
29.515    2323.000
29.530    2314.000
29.544    2226.000
29.559    2306.000
29.573    2287.000
29.588    2310.000
29.602    2273.000
29.617    2182.000
29.631    2298.000
29.646    2208.000
29.660    2254.000
29.675    2167.000
29.689    2254.000
29.704    2297.000
29.718    2237.000
29.733    2188.000
29.747    2205.000
29.762    2237.000
29.776    2237.000
29.791    2236.000
29.805    2182.000
29.820    2180.000
29.834    2174.000
29.849    2213.000
29.863    2088.000
29.878    2161.000
29.892    2177.000
29.907    2174.000
29.921    2210.000
29.936    2230.000
29.950    2144.000
29.965    2238.000
29.979    2098.000
29.994    2136.000
30.008    2101.000
30.023    2179.000
30.037    2055.000
30.051    2128.000
30.066    2136.000
30.080    2131.000
30.095    2007.000
30.109    2105.000
30.124    2237.000
30.138    2154.000
30.153    2150.000
30.167    2124.000
30.182    2073.000
30.196    2153.000
30.211    2038.000
30.225    2090.000
30.240    2118.000
30.254    2125.000
30.269    2053.000
30.283    2045.000
30.298    2102.000
30.312    2087.000
30.327    2097.000
30.341    2094.000
30.356    2121.000
30.370    2003.000
30.385    1989.000
30.399    2095.000
30.414    2009.000
30.428    2115.000
30.443    2050.000
30.457    2125.000
30.472    2028.000
30.486    2071.000
30.501    1959.000
30.515    2035.000
30.530    2008.000
30.544    2029.000
30.559    2050.000
30.573    2050.000
30.588    1935.000
30.602    2082.000
30.617    2026.000
30.631    2085.000
30.646    1903.000
30.660    2054.000
30.675    1941.000
30.689    2036.000
30.703    1983.000
30.718    2085.000
30.732    2055.000
30.747    2025.000
30.761    1997.000
30.776    1981.000
30.790    1951.000
30.805    2027.000
30.819    1999.000
30.834    1966.000
30.848    1962.000
30.863    1998.000
30.877    1973.000
30.892    2039.000
30.906    1905.000
30.921    2077.000
30.935    1935.000
30.950    1984.000
30.964    2008.000
30.979    1981.000
30.993    1991.000
31.008    2026.000
31.022    1918.000
31.037    2122.000
31.051    2074.000
31.066    2102.000
31.080    2050.000
31.095    2238.000
31.109    2232.000
31.124    2278.000
31.138    2394.000
31.153    2602.000
31.167    2729.000
31.182    2773.000
31.196    2947.000
31.211    2924.000
31.225    2934.000
31.240    2720.000
31.254    2691.000
31.269    2636.000
31.283    2458.000
31.298    2383.000
31.312    2256.000
31.327    2138.000
31.341    2225.000
31.355    2096.000
31.370    2050.000
31.384    2025.000
31.399    1989.000
31.413    2093.000
31.428    1998.000
31.442    1990.000
31.457    1930.000
31.471    1943.000
31.486    2003.000
31.500    1962.000
31.515    2025.000
31.529    1903.000
31.544    1985.000
31.558    2040.000
31.573    2067.000
31.587    2044.000
31.602    2048.000
31.616    2049.000
31.631    2250.000
31.645    2239.000
31.660    2192.000
31.674    2290.000
31.689    2388.000
31.703    2593.000
31.718    2759.000
31.732    2917.000
31.747    3007.000
31.761    3270.000
31.776    3362.000
31.790    3334.000
31.805    3246.000
31.819    3193.000
31.834    3042.000
31.848    2760.000
31.863    2774.000
31.877    2557.000
31.892    2472.000
31.906    2388.000
31.921    2218.000
31.935    2170.000
31.950    2127.000
31.964    2052.000
31.979    2039.000
31.993    2022.000
32.007    2046.000
32.022    2080.000
32.036    2070.000
32.051    2008.000
32.065    2090.000
32.080    2180.000
32.094    2106.000
32.109    2226.000
32.123    2278.000
32.138    2441.000
32.152    2643.000
32.167    2965.000
32.181    3239.000
32.196    3664.000
32.210    4084.000
32.225    4553.000
32.239    4654.000
32.254    4473.000
32.268    4312.000
32.283    3866.000
32.297    3377.000
32.312    2989.000
32.326    2559.000
32.341    2335.000
32.355    2272.000
32.370    2172.000
32.384    2191.000
32.399    2145.000
32.413    2130.000
32.428    2279.000
32.442    2359.000
32.457    2474.000
32.471    2604.000
32.486    2900.000
32.500    2976.000
32.515    2884.000
32.529    2908.000
32.544    2760.000
32.558    2458.000
32.573    2333.000
32.587    2233.000
32.602    2085.000
32.616    1971.000
32.631    1921.000
32.645    1884.000
32.660    1828.000
32.674    1883.000
32.688    1832.000
32.703    1802.000
32.717    1861.000
32.732    1887.000
32.746    1811.000
32.761    1816.000
32.775    1731.000
32.790    1788.000
32.804    1769.000
32.819    1775.000
32.833    1723.000
32.848    1720.000
32.862    1706.000
32.877    1740.000
32.891    1846.000
32.906    1762.000
32.920    1695.000
32.935    1731.000
32.949    1737.000
32.964    1735.000
32.978    1751.000
32.993    1797.000
33.007    1729.000
33.022    1778.000
33.036    1813.000
33.051    1747.000
33.065    1723.000
33.080    1713.000
33.094    1716.000
33.109    1712.000
33.123    1751.000
33.138    1746.000
33.152    1784.000
33.167    1730.000
33.181    1793.000
33.196    1722.000
33.210    1784.000
33.225    1912.000
33.239    1907.000
33.254    1909.000
33.268    1938.000
33.283    2000.000
33.297    1944.000
33.312    1878.000
33.326    1901.000
33.340    1920.000
33.355    1852.000
33.369    1758.000
33.384    1761.000
33.398    1774.000
33.413    1733.000
33.427    1783.000
33.442    1806.000
33.456    1818.000
33.471    1776.000
33.485    1812.000
33.500    1827.000
33.514    1793.000
33.529    1835.000
33.543    1882.000
33.558    1916.000
33.572    1854.000
33.587    1998.000
33.601    1990.000
33.616    2136.000
33.630    2341.000
33.645    2515.000
33.659    2788.000
33.674    3102.000
33.688    3579.000
33.703    3956.000
33.717    4341.000
33.732    4566.000
33.746    4570.000
33.761    4371.000
33.775    4086.000
33.790    3659.000
33.804    3185.000
33.819    2768.000
33.833    2425.000
33.848    2213.000
33.862    2125.000
33.877    1998.000
33.891    1865.000
33.906    1867.000
33.920    1790.000
33.935    1768.000
33.949    1745.000
33.964    1723.000
33.978    1670.000
33.992    1723.000
34.007    1693.000
34.021    1676.000
34.036    1681.000
34.050    1663.000
34.065    1659.000
34.079    1639.000
34.094    1655.000
34.108    1620.000
34.123    1704.000
34.137    1696.000
34.152    1639.000
34.166    1680.000
34.181    1642.000
34.195    1620.000
34.210    1606.000
34.224    1607.000
34.239    1614.000
34.253    1618.000
34.268    1647.000
34.282    1553.000
34.297    1579.000
34.311    1609.000
34.326    1600.000
34.340    1529.000
34.355    1663.000
34.369    1576.000
34.384    1545.000
34.398    1561.000
34.413    1619.000
34.427    1551.000
34.442    1517.000
34.456    1560.000
34.471    1588.000
34.485    1575.000
34.500    1534.000
34.514    1568.000
34.529    1598.000
34.543    1550.000
34.558    1561.000
34.572    1588.000
34.587    1599.000
34.601    1620.000
34.616    1545.000
34.630    1561.000
34.644    1613.000
34.659    1543.000
34.673    1581.000
34.688    1571.000
34.702    1596.000
34.717    1538.000
34.731    1532.000
34.746    1537.000
34.760    1501.000
34.775    1571.000
34.789    1518.000
34.804    1512.000
34.818    1566.000
34.833    1538.000
34.847    1538.000
34.862    1511.000
34.876    1611.000
34.891    1549.000
34.905    1521.000
34.920    1588.000
34.934    1537.000
34.949    1458.000
34.963    1570.000
34.978    1513.000
34.992    1569.000
35.007    1573.000
35.021    1503.000
35.036    1561.000
35.050    1527.000
35.065    1520.000
35.079    1536.000
35.094    1470.000
35.108    1458.000
35.123    1475.000
35.137    1547.000
35.152    1529.000
35.166    1533.000
35.181    1505.000
35.195    1509.000
35.210    1506.000
35.224    1509.000
35.239    1563.000
35.253    1498.000
35.268    1490.000
35.282    1523.000
35.296    1531.000
35.311    1484.000
35.325    1534.000
35.340    1481.000
35.354    1537.000
35.369    1519.000
35.383    1541.000
35.398    1614.000
35.412    1601.000
35.427    1666.000
35.441    1713.000
35.456    1827.000
35.470    1885.000
35.485    1945.000
35.499    1998.000
35.514    2063.000
35.528    2056.000
35.543    1995.000
35.557    1958.000
35.572    1832.000
35.586    1663.000
35.601    1700.000
35.615    1536.000
35.630    1561.000
35.644    1586.000
35.659    1605.000
35.673    1525.000
35.688    1543.000
35.702    1465.000
35.717    1488.000
35.731    1518.000
35.746    1527.000
35.760    1478.000
35.775    1565.000
35.789    1590.000
35.804    1465.000
35.818    1555.000
35.833    1569.000
35.847    1587.000
35.862    1635.000
35.876    1606.000
35.891    1553.000
35.905    1548.000
35.920    1606.000
35.934    1528.000
35.949    1595.000
35.963    1535.000
35.977    1586.000
35.992    1619.000
36.006    1655.000
36.021    1685.000
36.035    1607.000
36.050    1658.000
36.064    1611.000
36.079    1601.000
36.093    1621.000
36.108    1623.000
36.122    1567.000
36.137    1546.000
36.151    1572.000
36.166    1538.000
36.180    1505.000
36.195    1680.000
36.209    1550.000
36.224    1641.000
36.238    1534.000
36.253    1592.000
36.267    1628.000
36.282    1420.000
36.296    1528.000
36.311    1471.000
36.325    1409.000
36.340    1480.000
36.354    1461.000
36.369    1418.000
36.383    1454.000
36.398    1477.000
36.412    1444.000
36.427    1413.000
36.441    1415.000
36.456    1442.000
36.470    1401.000
36.485    1358.000
36.499    1474.000
36.514    1359.000
36.528    1422.000
36.543    1394.000
36.557    1440.000
36.572    1442.000
36.586    1355.000
36.601    1393.000
36.615    1385.000
36.629    1419.000
36.644    1405.000
36.658    1441.000
36.673    1464.000
36.687    1434.000
36.702    1425.000
36.716    1497.000
36.731    1480.000
36.745    1518.000
36.760    1498.000
36.774    1472.000
36.789    1528.000
36.803    1534.000
36.818    1593.000
36.832    1571.000
36.847    1542.000
36.861    1423.000
36.876    1511.000
36.890    1490.000
36.905    1444.000
36.919    1393.000
36.934    1435.000
36.948    1504.000
36.963    1436.000
36.977    1380.000
36.992    1404.000
37.006    1375.000
37.021    1306.000
37.035    1380.000
37.050    1402.000
37.064    1391.000
37.079    1424.000
37.093    1390.000
37.108    1427.000
37.122    1370.000
37.137    1364.000
37.151    1402.000
37.166    1417.000
37.180    1404.000
37.195    1394.000
37.209    1372.000
37.224    1376.000
37.238    1408.000
37.253    1376.000
37.267    1439.000
37.281    1515.000
37.296    1512.000
37.310    1532.000
37.325    1568.000
37.339    1600.000
37.354    1751.000
37.368    1755.000
37.383    1890.000
37.397    1911.000
37.412    1836.000
37.426    1873.000
37.441    1792.000
37.455    1681.000
37.470    1676.000
37.484    1578.000
37.499    1473.000
37.513    1481.000
37.528    1431.000
37.542    1491.000
37.557    1406.000
37.571    1374.000
37.586    1375.000
37.600    1383.000
37.615    1335.000
37.629    1352.000
37.644    1359.000
37.658    1351.000
37.673    1371.000
37.687    1375.000
37.702    1356.000
37.716    1293.000
37.731    1293.000
37.745    1350.000
37.760    1322.000
37.774    1286.000
37.789    1284.000
37.803    1327.000
37.818    1387.000
37.832    1286.000
37.847    1367.000
37.861    1382.000
37.876    1383.000
37.890    1411.000
37.905    1349.000
37.919    1357.000
37.933    1328.000
37.948    1312.000
37.962    1345.000
37.977    1283.000
37.991    1289.000
38.006    1270.000
38.020    1294.000
38.035    1328.000
38.049    1322.000
38.064    1321.000
38.078    1345.000
38.093    1260.000
38.107    1303.000
38.122    1284.000
38.136    1353.000
38.151    1317.000
38.165    1318.000
38.180    1362.000
38.194    1371.000
38.209    1377.000
38.223    1376.000
38.238    1372.000
38.252    1454.000
38.267    1401.000
38.281    1449.000
38.296    1423.000
38.310    1507.000
38.325    1528.000
38.339    1503.000
38.354    1460.000
38.368    1422.000
38.383    1388.000
38.397    1387.000
38.412    1406.000
38.426    1328.000
38.441    1306.000
38.455    1326.000
38.470    1247.000
38.484    1320.000
38.499    1375.000
38.513    1329.000
38.528    1376.000
38.542    1273.000
38.557    1336.000
38.571    1256.000
38.586    1262.000
38.600    1252.000
38.614    1258.000
38.629    1294.000
38.643    1243.000
38.658    1277.000
38.672    1258.000
38.687    1332.000
38.701    1275.000
38.716    1231.000
38.730    1262.000
38.745    1283.000
38.759    1274.000
38.774    1239.000
38.788    1275.000
38.803    1238.000
38.817    1290.000
38.832    1336.000
38.846    1337.000
38.861    1381.000
38.875    1449.000
38.890    1461.000
38.904    1471.000
38.919    1532.000
38.933    1657.000
38.948    1700.000
38.962    1813.000
38.977    1821.000
38.991    1748.000
39.006    1679.000
39.020    1652.000
39.035    1579.000
39.049    1476.000
39.064    1466.000
39.078    1359.000
39.093    1362.000
39.107    1278.000
39.122    1312.000
39.136    1307.000
39.151    1297.000
39.165    1286.000
39.180    1334.000
39.194    1321.000
39.209    1351.000
39.223    1252.000
39.238    1303.000
39.252    1277.000
39.266    1317.000
39.281    1274.000
39.295    1280.000
39.310    1318.000
39.324    1306.000
39.339    1327.000
39.353    1371.000
39.368    1367.000
39.382    1338.000
39.397    1346.000
39.411    1420.000
39.426    1462.000
39.440    1508.000
39.455    1572.000
39.469    1573.000
39.484    1611.000
39.498    1716.000
39.513    1773.000
39.527    1811.000
39.542    1736.000
39.556    1683.000
39.571    1686.000
39.585    1639.000
39.600    1539.000
39.614    1532.000
39.629    1517.000
39.643    1477.000
39.658    1404.000
39.672    1337.000
39.687    1335.000
39.701    1283.000
39.716    1234.000
39.730    1278.000
39.745    1248.000
39.759    1291.000
39.774    1291.000
39.788    1316.000
39.803    1264.000
39.817    1290.000
39.832    1290.000
39.846    1232.000
39.861    1244.000
39.875    1266.000
39.890    1315.000
39.904    1309.000
39.918    1251.000
39.933    1224.000
39.947    1260.000
39.962    1226.000
39.976    1139.000
39.991    1253.000
40.005    1244.000
40.020    1265.000
40.034    1222.000
40.049    1214.000
40.063    1218.000
40.078    1246.000
40.092    1233.000
40.107    1294.000
40.121    1282.000
40.136    1283.000
40.150    1209.000
40.165    1230.000
40.179    1255.000
40.194    1235.000
40.208    1240.000
40.223    1237.000
40.237    1229.000
40.252    1253.000
40.266    1230.000
40.281    1227.000
40.295    1295.000
40.310    1275.000
40.324    1281.000
40.339    1249.000
40.353    1319.000
40.368    1245.000
40.382    1280.000
40.397    1314.000
40.411    1355.000
40.426    1283.000
40.440    1347.000
40.455    1323.000
40.469    1385.000
40.484    1483.000
40.498    1418.000
40.513    1532.000
40.527    1564.000
40.542    1654.000
40.556    1749.000
40.570    1698.000
40.585    1768.000
40.599    1690.000
40.614    1682.000
40.628    1610.000
40.643    1619.000
40.657    1654.000
40.672    1552.000
40.686    1584.000
40.701    1615.000
40.715    1542.000
40.730    1641.000
40.744    1555.000
40.759    1563.000
40.773    1499.000
40.788    1543.000
40.802    1438.000
40.817    1454.000
40.831    1409.000
40.846    1347.000
40.860    1390.000
40.875    1353.000
40.889    1377.000
40.904    1257.000
40.918    1376.000
40.933    1374.000
40.947    1340.000
40.962    1417.000
40.976    1371.000
40.991    1413.000
41.005    1440.000
41.020    1510.000
41.034    1525.000
41.049    1511.000
41.063    1673.000
41.078    1613.000
41.092    1655.000
41.107    1597.000
41.121    1621.000
41.136    1603.000
41.150    1593.000
41.165    1437.000
41.179    1440.000
41.194    1400.000
41.208    1310.000
41.222    1341.000
41.237    1336.000
41.251    1328.000
41.266    1326.000
41.280    1321.000
41.295    1258.000
41.309    1184.000
41.324    1201.000
41.338    1188.000
41.353    1204.000
41.367    1221.000
41.382    1266.000
41.396    1192.000
41.411    1263.000
41.425    1266.000
41.440    1266.000
41.454    1187.000
41.469    1271.000
41.483    1265.000
41.498    1243.000
41.512    1217.000
41.527    1226.000
41.541    1193.000
41.556    1229.000
41.570    1334.000
41.585    1203.000
41.599    1291.000
41.614    1260.000
41.628    1240.000
41.643    1302.000
41.657    1306.000
41.672    1215.000
41.686    1246.000
41.701    1235.000
41.715    1221.000
41.730    1285.000
41.744    1236.000
41.759    1252.000
41.773    1263.000
41.788    1292.000
41.802    1245.000
41.817    1247.000
41.831    1293.000
41.846    1246.000
41.860    1271.000
41.875    1251.000
41.889    1236.000
41.903    1236.000
41.918    1302.000
41.932    1271.000
41.947    1216.000
41.961    1232.000
41.976    1142.000
41.990    1214.000
42.005    1223.000
42.019    1250.000
42.034    1232.000
42.048    1261.000
42.063    1321.000
42.077    1223.000
42.092    1299.000
42.106    1257.000
42.121    1293.000
42.135    1256.000
42.150    1245.000
42.164    1211.000
42.179    1299.000
42.193    1163.000
42.208    1261.000
42.222    1260.000
42.237    1290.000
42.251    1274.000
42.266    1237.000
42.280    1279.000
42.295    1288.000
42.309    1251.000
42.324    1285.000
42.338    1285.000
42.353    1254.000
42.367    1365.000
42.382    1422.000
42.396    1383.000
42.411    1345.000
42.425    1419.000
42.440    1394.000
42.454    1400.000
42.469    1518.000
42.483    1495.000
42.498    1622.000
42.512    1747.000
42.527    1911.000
42.541    2096.000
42.555    2281.000
42.570    2502.000
42.584    2690.000
42.599    2884.000
42.613    2891.000
42.628    2992.000
42.642    2827.000
42.657    2588.000
42.671    2336.000
42.686    2249.000
42.700    1991.000
42.715    1852.000
42.729    1697.000
42.744    1672.000
42.758    1494.000
42.773    1522.000
42.787    1422.000
42.802    1432.000
42.816    1463.000
42.831    1422.000
42.845    1483.000
42.860    1392.000
42.874    1372.000
42.889    1393.000
42.903    1474.000
42.918    1422.000
42.932    1439.000
42.947    1498.000
42.961    1490.000
42.976    1581.000
42.990    1625.000
43.005    1739.000
43.019    1868.000
43.034    1840.000
43.048    2157.000
43.063    2327.000
43.077    2548.000
43.092    2781.000
43.106    3139.000
43.121    3302.000
43.135    3393.000
43.150    3645.000
43.164    3577.000
43.179    3618.000
43.193    3394.000
43.207    3332.000
43.222    3082.000
43.236    2966.000
43.251    2852.000
43.265    2590.000
43.280    2368.000
43.294    2336.000
43.309    2190.000
43.323    2102.000
43.338    2092.000
43.352    2212.000
43.367    2274.000
43.381    2362.000
43.396    2528.000
43.410    2747.000
43.425    2825.000
43.439    2897.000
43.454    2884.000
43.468    2899.000
43.483    2729.000
43.497    2593.000
43.512    2268.000
43.526    2114.000
43.541    2027.000
43.555    1902.000
43.570    1781.000
43.584    1696.000
43.599    1652.000
43.613    1682.000
43.628    1546.000
43.642    1692.000
43.657    1645.000
43.671    1725.000
43.686    1843.000
43.700    1958.000
43.715    1964.000
43.729    1985.000
43.744    2056.000
43.758    2080.000
43.773    2106.000
43.787    2136.000
43.802    2038.000
43.816    1911.000
43.831    1895.000
43.845    1754.000
43.859    1667.000
43.874    1600.000
43.888    1588.000
43.903    1521.000
43.917    1461.000
43.932    1467.000
43.946    1366.000
43.961    1361.000
43.975    1401.000
43.990    1427.000
44.004    1365.000
44.019    1417.000
44.033    1397.000
44.048    1387.000
44.062    1408.000
44.077    1518.000
44.091    1525.000
44.106    1644.000
44.120    1645.000
44.135    1764.000
44.149    1853.000
44.164    1987.000
44.178    2234.000
44.193    2319.000
44.207    2511.000
44.222    2617.000
44.236    2654.000
44.251    2605.000
44.265    2542.000
44.280    2374.000
44.294    2225.000
44.309    1899.000
44.323    1784.000
44.338    1668.000
44.352    1584.000
44.367    1481.000
44.381    1557.000
44.396    1422.000
44.410    1359.000
44.425    1448.000
44.439    1301.000
44.454    1262.000
44.468    1288.000
44.483    1271.000
44.497    1318.000
44.512    1287.000
44.526    1291.000
44.540    1309.000
44.555    1220.000
44.569    1269.000
44.584    1293.000
44.598    1306.000
44.613    1312.000
44.627    1252.000
44.642    1271.000
44.656    1349.000
44.671    1267.000
44.685    1283.000
44.700    1283.000
44.714    1243.000
44.729    1274.000
44.743    1275.000
44.758    1197.000
44.772    1282.000
44.787    1252.000
44.801    1266.000
44.816    1344.000
44.830    1293.000
44.845    1297.000
44.859    1338.000
44.874    1356.000
44.888    1358.000
44.903    1381.000
44.917    1440.000
44.932    1461.000
44.946    1507.000
44.961    1566.000
44.975    1507.000
44.990    1516.000
45.004    1486.000
45.019    1438.000
45.033    1536.000
45.048    1552.000
45.062    1522.000
45.077    1430.000
45.091    1378.000
45.106    1406.000
45.120    1393.000
45.135    1373.000
45.149    1316.000
45.164    1389.000
45.178    1275.000
45.192    1291.000
45.207    1279.000
45.221    1298.000
45.236    1270.000
45.250    1240.000
45.265    1328.000
45.279    1227.000
45.294    1226.000
45.308    1275.000
45.323    1218.000
45.337    1232.000
45.352    1299.000
45.366    1249.000
45.381    1256.000
45.395    1293.000
45.410    1156.000
45.424    1230.000
45.439    1279.000
45.453    1191.000
45.468    1265.000
45.482    1202.000
45.497    1237.000
45.511    1275.000
45.526    1199.000
45.540    1260.000
45.555    1188.000
45.569    1152.000
45.584    1271.000
45.598    1268.000
45.613    1230.000
45.627    1232.000
45.642    1234.000
45.656    1221.000
45.671    1247.000
45.685    1297.000
45.700    1300.000
45.714    1331.000
45.729    1303.000
45.743    1353.000
45.758    1384.000
45.772    1466.000
45.787    1492.000
45.801    1597.000
45.816    1542.000
45.830    1700.000
45.844    1604.000
45.859    1635.000
45.873    1596.000
45.888    1622.000
45.902    1512.000
45.917    1418.000
45.931    1395.000
45.946    1318.000
45.960    1277.000
45.975    1271.000
45.989    1239.000
46.004    1286.000
46.018    1288.000
46.033    1243.000
46.047    1223.000
46.062    1201.000
46.076    1181.000
46.091    1206.000
46.105    1209.000
46.120    1235.000
46.134    1252.000
46.149    1237.000
46.163    1242.000
46.178    1222.000
46.192    1309.000
46.207    1263.000
46.221    1316.000
46.236    1267.000
46.250    1276.000
46.265    1306.000
46.279    1365.000
46.294    1445.000
46.308    1357.000
46.323    1483.000
46.337    1482.000
46.352    1485.000
46.366    1543.000
46.381    1668.000
46.395    1705.000
46.410    1798.000
46.424    1867.000
46.439    1915.000
46.453    1851.000
46.468    1870.000
46.482    1917.000
46.496    1809.000
46.511    1678.000
46.525    1567.000
46.540    1507.000
46.554    1440.000
46.569    1467.000
46.583    1470.000
46.598    1365.000
46.612    1385.000
46.627    1390.000
46.641    1295.000
46.656    1291.000
46.670    1305.000
46.685    1287.000
46.699    1258.000
46.714    1240.000
46.728    1267.000
46.743    1231.000
46.757    1236.000
46.772    1193.000
46.786    1204.000
46.801    1199.000
46.815    1233.000
46.830    1205.000
46.844    1202.000
46.859    1249.000
46.873    1211.000
46.888    1232.000
46.902    1188.000
46.917    1195.000
46.931    1202.000
46.946    1236.000
46.960    1162.000
46.975    1197.000
46.989    1172.000
47.004    1163.000
47.018    1132.000
47.033    1246.000
47.047    1197.000
47.062    1168.000
47.076    1169.000
47.091    1208.000
47.105    1197.000
47.120    1193.000
47.134    1228.000
47.148    1179.000
47.163    1147.000
47.177    1155.000
47.192    1202.000
47.206    1156.000
47.221    1155.000
47.235    1158.000
47.250    1130.000
47.264    1260.000
47.279    1160.000
47.293    1080.000
47.308    1154.000
47.322    1183.000
47.337    1114.000
47.351    1207.000
47.366    1125.000
47.380    1179.000
47.395    1160.000
47.409    1166.000
47.424    1172.000
47.438    1204.000
47.453    1200.000
47.467    1218.000
47.482    1203.000
47.496    1218.000
47.511    1252.000
47.525    1265.000
47.540    1280.000
47.554    1257.000
47.569    1293.000
47.583    1281.000
47.598    1240.000
47.612    1284.000
47.627    1292.000
47.641    1243.000
47.656    1220.000
47.670    1181.000
47.685    1190.000
47.699    1247.000
47.714    1195.000
47.728    1208.000
47.743    1220.000
47.757    1193.000
47.772    1192.000
47.786    1169.000
47.801    1244.000
47.815    1202.000
47.829    1198.000
47.844    1229.000
47.858    1207.000
47.873    1263.000
47.887    1305.000
47.902    1346.000
47.916    1324.000
47.931    1372.000
47.945    1442.000
47.960    1438.000
47.974    1463.000
47.989    1506.000
48.003    1493.000
48.018    1427.000
48.032    1496.000
48.047    1408.000
48.061    1503.000
48.076    1478.000
48.090    1355.000
48.105    1379.000
48.119    1431.000
48.134    1502.000
48.148    1432.000
48.163    1543.000
48.177    1552.000
48.192    1566.000
48.206    1657.000
48.221    1677.000
48.235    1731.000
48.250    1791.000
48.264    1655.000
48.279    1691.000
48.293    1649.000
48.308    1713.000
48.322    1700.000
48.337    1519.000
48.351    1411.000
48.366    1459.000
48.380    1359.000
48.395    1358.000
48.409    1311.000
48.424    1318.000
48.438    1222.000
48.453    1280.000
48.467    1234.000
48.481    1250.000
48.496    1280.000
48.510    1272.000
48.525    1161.000
48.539    1172.000
48.554    1224.000
48.568    1308.000
48.583    1254.000
48.597    1222.000
48.612    1287.000
48.626    1280.000
48.641    1280.000
48.655    1376.000
48.670    1375.000
48.684    1344.000
48.699    1333.000
48.713    1412.000
48.728    1497.000
48.742    1447.000
48.757    1519.000
48.771    1542.000
48.786    1619.000
48.800    1571.000
48.815    1693.000
48.829    1762.000
48.844    1715.000
48.858    1838.000
48.873    1817.000
48.887    1795.000
48.902    1824.000
48.916    1723.000
48.931    1705.000
48.945    1662.000
48.960    1601.000
48.974    1545.000
48.989    1519.000
49.003    1545.000
49.018    1355.000
49.032    1402.000
49.047    1423.000
49.061    1418.000
49.076    1430.000
49.090    1305.000
49.105    1394.000
49.119    1468.000
49.133    1477.000
49.148    1485.000
49.162    1471.000
49.177    1514.000
49.191    1500.000
49.206    1436.000
49.220    1515.000
49.235    1421.000
49.249    1385.000
49.264    1403.000
49.278    1342.000
49.293    1277.000
49.307    1238.000
49.322    1287.000
49.336    1241.000
49.351    1319.000
49.365    1232.000
49.380    1251.000
49.394    1250.000
49.409    1263.000
49.423    1233.000
49.438    1268.000
49.452    1343.000
49.467    1369.000
49.481    1340.000
49.496    1366.000
49.510    1441.000
49.525    1363.000
49.539    1365.000
49.554    1534.000
49.568    1425.000
49.583    1557.000
49.597    1526.000
49.612    1529.000
49.626    1473.000
49.641    1566.000
49.655    1545.000
49.670    1499.000
49.684    1551.000
49.699    1488.000
49.713    1413.000
49.728    1382.000
49.742    1411.000
49.757    1287.000
49.771    1361.000
49.785    1328.000
49.800    1302.000
49.814    1343.000
49.829    1421.000
49.843    1379.000
49.858    1381.000
49.872    1427.000
49.887    1479.000
49.901    1517.000
49.916    1695.000
49.930    1607.000
49.945    1641.000
49.959    1682.000
49.974    1614.000
49.988    1660.000
50.003    1591.000
50.017    1534.000
50.032    1562.000
50.046    1461.000
50.061    1549.000
50.075    1532.000
50.090    1544.000
50.104    1619.000
50.119    1599.000
50.133    1551.000
50.148    1594.000
50.162    1556.000
50.177    1575.000
50.191    1610.000
50.206    1630.000
50.220    1657.000
50.235    1672.000
50.249    1665.000
50.264    1712.000
50.278    1618.000
50.293    1683.000
50.307    1811.000
50.322    1858.000
50.336    1894.000
50.351    2003.000
50.365    2047.000
50.380    2134.000
50.394    2236.000
50.409    2301.000
50.423    2300.000
50.438    2240.000
50.452    2290.000
50.466    2333.000
50.481    2156.000
50.495    2142.000
50.510    2080.000
50.524    2003.000
50.539    1950.000
50.553    1829.000
50.568    1810.000
50.582    1845.000
50.597    1793.000
50.611    1834.000
50.626    1745.000
50.640    1794.000
50.655    1774.000
50.669    1773.000
50.684    1763.000
50.698    1745.000
50.713    1709.000
50.727    1552.000
50.742    1553.000
50.756    1535.000
50.771    1416.000
50.785    1346.000
50.800    1458.000
50.814    1427.000
50.829    1360.000
50.843    1345.000
50.858    1315.000
50.872    1399.000
50.887    1434.000
50.901    1401.000
50.916    1340.000
50.930    1302.000
50.945    1327.000
50.959    1260.000
50.974    1294.000
50.988    1362.000
51.003    1272.000
51.017    1252.000
51.032    1292.000
51.046    1272.000
51.061    1202.000
51.075    1285.000
51.090    1187.000
51.104    1220.000
51.118    1221.000
51.133    1220.000
51.147    1231.000
51.162    1141.000
51.176    1189.000
51.191    1185.000
51.205    1159.000
51.220    1183.000
51.234    1125.000
51.249    1166.000
51.263    1140.000
51.278    1142.000
51.292    1099.000
51.307    1110.000
51.321    1171.000
51.336    1101.000
51.350    1102.000
51.365    1119.000
51.379    1088.000
51.394    1165.000
51.408    1120.000
51.423    1116.000
51.437    1049.000
51.452    1078.000
51.466    1089.000
51.481    1172.000
51.495    1111.000
51.510    1101.000
51.524    1083.000
51.539    1122.000
51.553    1080.000
51.568    1120.000
51.582    1148.000
51.597    1190.000
51.611    1189.000
51.626    1191.000
51.640    1191.000
51.655    1214.000
51.669    1199.000
51.684    1177.000
51.698    1293.000
51.713    1224.000
51.727    1375.000
51.742    1384.000
51.756    1396.000
51.770    1461.000
51.785    1546.000
51.799    1559.000
51.814    1592.000
51.828    1651.000
51.843    1508.000
51.857    1526.000
51.872    1511.000
51.886    1428.000
51.901    1392.000
51.915    1306.000
51.930    1311.000
51.944    1246.000
51.959    1210.000
51.973    1197.000
51.988    1216.000
52.002    1156.000
52.017    1166.000
52.031    1116.000
52.046    1122.000
52.060    1077.000
52.075    1117.000
52.089    1129.000
52.104    1048.000
52.118    1153.000
52.133    1096.000
52.147    1087.000
52.162    1051.000
52.176    1091.000
52.191    1012.000
52.205    1076.000
52.220    1054.000
52.234    1072.000
52.249    1063.000
52.263    1105.000
52.278    1136.000
52.292    1106.000
52.307    1084.000
52.321    1080.000
52.336    1157.000
52.350    1155.000
52.365    1060.000
52.379    1142.000
52.394    1063.000
52.408    1041.000
52.422    1063.000
52.437    1066.000
52.451    1121.000
52.466    1112.000
52.480    1091.000
52.495    1079.000
52.509    1072.000
52.524    1052.000
52.538    1054.000
52.553    1067.000
52.567    1082.000
52.582    1082.000
52.596    1048.000
52.611    1080.000
52.625    1063.000
52.640    1087.000
52.654    1091.000
52.669    1079.000
52.683    1114.000
52.698    1149.000
52.712    1068.000
52.727    1163.000
52.741    1091.000
52.756    1215.000
52.770    1198.000
52.785    1203.000
52.799    1215.000
52.814    1193.000
52.828    1317.000
52.843    1249.000
52.857    1272.000
52.872    1389.000
52.886    1382.000
52.901    1383.000
52.915    1413.000
52.930    1486.000
52.944    1430.000
52.959    1487.000
52.973    1492.000
52.988    1550.000
53.002    1479.000
53.017    1399.000
53.031    1469.000
53.046    1360.000
53.060    1313.000
53.075    1340.000
53.089    1325.000
53.103    1215.000
53.118    1295.000
53.132    1171.000
53.147    1142.000
53.161    1132.000
53.176    1158.000
53.190    1139.000
53.205    1092.000
53.219    1084.000
53.234    1174.000
53.248    1036.000
53.263    1081.000
53.277    1097.000
53.292    1075.000
53.306    1145.000
53.321    1062.000
53.335    1045.000
53.350    1152.000
53.364    1049.000
53.379    1072.000
53.393    1125.000
53.408    1076.000
53.422    1049.000
53.437    1063.000
53.451    1049.000
53.466    1060.000
53.480    1082.000
53.495    1055.000
53.509    1079.000
53.524    1145.000
53.538    1077.000
53.553    1033.000
53.567    1064.000
53.582    1132.000
53.596    1139.000
53.611    1157.000
53.625    1184.000
53.640    1190.000
53.654    1207.000
53.669    1110.000
53.683    1257.000
53.698    1267.000
53.712    1321.000
53.727    1270.000
53.741    1388.000
53.755    1438.000
53.770    1494.000
53.784    1444.000
53.799    1401.000
53.813    1510.000
53.828    1551.000
53.842    1548.000
53.857    1428.000
53.871    1496.000
53.886    1520.000
53.900    1531.000
53.915    1498.000
53.929    1617.000
53.944    1639.000
53.958    1722.000
53.973    1814.000
53.987    1812.000
54.002    1920.000
54.016    1905.000
54.031    1945.000
54.045    1841.000
54.060    1886.000
54.074    1790.000
54.089    1744.000
54.103    1612.000
54.118    1609.000
54.132    1530.000
54.147    1465.000
54.161    1438.000
54.176    1265.000
54.190    1308.000
54.205    1246.000
54.219    1214.000
54.234    1236.000
54.248    1227.000
54.263    1151.000
54.277    1185.000
54.292    1149.000
54.306    1142.000
54.321    1173.000
54.335    1150.000
54.350    1137.000
54.364    1170.000
54.379    1111.000
54.393    1205.000
54.407    1161.000
54.422    1193.000
54.436    1184.000
54.451    1231.000
54.465    1236.000
54.480    1138.000
54.494    1191.000
54.509    1223.000
54.523    1161.000
54.538    1251.000
54.552    1292.000
54.567    1305.000
54.581    1222.000
54.596    1228.000
54.610    1183.000
54.625    1242.000
54.639    1234.000
54.654    1178.000
54.668    1210.000
54.683    1206.000
54.697    1179.000
54.712    1195.000
54.726    1214.000
54.741    1191.000
54.755    1219.000
54.770    1191.000
54.784    1160.000
54.799    1140.000
54.813    1144.000
54.828    1133.000
54.842    1049.000
54.857    1109.000
54.871    1134.000
54.886    1083.000
54.900    1083.000
54.915    1083.000
54.929    1083.000
54.944    1031.000
54.958    1086.000
54.973    1064.000
54.987    1066.000
55.002    1090.000
55.016    1063.000
55.031    1089.000
55.045    1002.000
55.059    1061.000
55.074    1125.000
55.088    1120.000
55.103    1063.000
55.117    1122.000
55.132    1099.000
55.146    1057.000
55.161    1124.000
55.175    1139.000
55.190    1150.000
55.204    1138.000
55.219    1134.000
55.233    1189.000
55.248    1204.000
55.262    1245.000
55.277    1224.000
55.291    1211.000
55.306    1260.000
55.320    1182.000
55.335    1263.000
55.349    1203.000
55.364    1275.000
55.378    1302.000
55.393    1261.000
55.407    1212.000
55.422    1258.000
55.436    1169.000
55.451    1261.000
55.465    1293.000
55.480    1358.000
55.494    1308.000
55.509    1283.000
55.523    1316.000
55.538    1334.000
55.552    1320.000
55.567    1305.000
55.581    1394.000
55.596    1325.000
55.610    1411.000
55.625    1259.000
55.639    1287.000
55.654    1286.000
55.668    1329.000
55.683    1292.000
55.697    1210.000
55.711    1217.000
55.726    1246.000
55.740    1193.000
55.755    1204.000
55.769    1201.000
55.784    1147.000
55.798    1138.000
55.813    1127.000
55.827    1098.000
55.842    1101.000
55.856    1108.000
55.871    1033.000
55.885    1123.000
55.900    1060.000
55.914    1055.000
55.929    1079.000
55.943    1069.000
55.958    1082.000
55.972    1106.000
55.987    1026.000
56.001    1077.000
56.016    1132.000
56.030    1126.000
56.045    1190.000
56.059    1137.000
56.074    1198.000
56.088    1231.000
56.103    1156.000
56.117    1268.000
56.132    1213.000
56.146    1151.000
56.161    1179.000
56.175    1118.000
56.190    1115.000
56.204    1073.000
56.219    1071.000
56.233    1081.000
56.248    1014.000
56.262    1088.000
56.277    1081.000
56.291    1042.000
56.306    1062.000
56.320    1083.000
56.335     982.000
56.349    1092.000
56.364    1014.000
56.378    1019.000
56.392    1060.000
56.407    1017.000
56.421    1026.000
56.436    1051.000
56.450    1023.000
56.465    1040.000
56.479    1086.000
56.494    1017.000
56.508    1078.000
56.523     974.000
56.537    1036.000
56.552    1010.000
56.566     994.000
56.581    1041.000
56.595    1057.000
56.610    1035.000
56.624    1014.000
56.639    1040.000
56.653    1123.000
56.668    1120.000
56.682    1034.000
56.697    1103.000
56.711    1068.000
56.726    1091.000
56.740    1051.000
56.755    1061.000
56.769    1035.000
56.784    1064.000
56.798    1034.000
56.813    1080.000
56.827    1062.000
56.842    1090.000
56.856    1121.000
56.871    1091.000
56.885    1124.000
56.900    1142.000
56.914    1204.000
56.929    1231.000
56.943    1184.000
56.958    1187.000
56.972    1129.000
56.987    1128.000
57.001    1174.000
57.016    1151.000
57.030    1135.000
57.044    1114.000
57.059    1110.000
57.073    1103.000
57.088    1060.000
57.102    1057.000
57.117    1105.000
57.131    1022.000
57.146    1089.000
57.160    1082.000
57.175    1142.000
57.189    1082.000
57.204    1097.000
57.218    1113.000
57.233    1102.000
57.247    1092.000
57.262    1135.000
57.276    1091.000
57.291    1028.000
57.305    1046.000
57.320    1065.000
57.334    1063.000
57.349    1113.000
57.363    1129.000
57.378    1115.000
57.392    1018.000
57.407    1131.000
57.421    1152.000
57.436    1137.000
57.450    1132.000
57.465    1125.000
57.479    1089.000
57.494    1091.000
57.508    1053.000
57.523    1082.000
57.537    1178.000
57.552    1077.000
57.566    1149.000
57.581    1161.000
57.595    1040.000
57.610    1104.000
57.624    1161.000
57.639    1120.000
57.653    1056.000
57.668    1088.000
57.682    1037.000
57.696    1156.000
57.711    1059.000
57.725    1074.000
57.740    1044.000
57.754    1028.000
57.769    1117.000
57.783    1045.000
57.798    1023.000
57.812    1019.000
57.827    1059.000
57.841     993.000
57.856    1053.000
57.870    1044.000
57.885    1027.000
57.899    1023.000
57.914    1045.000
57.928    1037.000
57.943    1031.000
57.957     980.000
57.972    1080.000
57.986    1021.000
58.001    1017.000
58.015    1010.000
58.030    1076.000
58.044    1022.000
58.059    1061.000
58.073    1039.000
58.088     968.000
58.102     998.000
58.117    1033.000
58.131     999.000
58.146    1021.000
58.160    1019.000
58.175    1006.000
58.189    1011.000
58.204    1022.000
58.218    1005.000
58.233     945.000
58.247    1020.000
58.262     971.000
58.276    1012.000
58.291    1017.000
58.305    1034.000
58.320    1075.000
58.334     977.000
58.348    1038.000
58.363    1007.000
58.377    1036.000
58.392    1055.000
58.406    1051.000
58.421    1127.000
58.435    1130.000
58.450    1088.000
58.464    1110.000
58.479    1170.000
58.493    1154.000
58.508    1198.000
58.522    1130.000
58.537    1184.000
58.551    1204.000
58.566    1164.000
58.580    1192.000
58.595    1173.000
58.609    1161.000
58.624    1208.000
58.638    1157.000
58.653    1147.000
58.667    1192.000
58.682    1136.000
58.696    1169.000
58.711    1090.000
58.725    1074.000
58.740    1131.000
58.754    1080.000
58.769    1095.000
58.783    1007.000
58.798    1121.000
58.812    1060.000
58.827    1080.000
58.841    1025.000
58.856    1074.000
58.870    1034.000
58.885     958.000
58.899     982.000
58.914    1046.000
58.928    1048.000
58.943     992.000
58.957    1005.000
58.972    1060.000
58.986     964.000
59.001     990.000
59.015    1080.000
59.029    1000.000
59.044    1013.000
59.058    1035.000
59.073    1004.000
59.087    1101.000
59.102    1029.000
59.116    1106.000
59.131    1065.000
59.145    1043.000
59.160    1190.000
59.174    1175.000
59.189    1117.000
59.203    1223.000
59.218    1187.000
59.232    1225.000
59.247    1210.000
59.261    1220.000
59.276    1229.000
59.290    1235.000
59.305    1220.000
59.319    1276.000
59.334    1238.000
59.348    1235.000
59.363    1166.000
59.377    1176.000
59.392    1141.000
59.406    1167.000
59.421    1062.000
59.435    1055.000
59.450    1112.000
59.464    1097.000
59.479    1155.000
59.493    1142.000
59.508    1155.000
59.522    1088.000
59.537    1149.000
59.551    1076.000
59.566    1122.000
59.580    1140.000
59.595    1036.000
59.609    1008.000
59.624    1022.000
59.638     997.000
59.653    1078.000
59.667     983.000
59.681    1033.000
59.696     981.000
59.710    1031.000
59.725    1064.000
59.739    1026.000
59.754    1037.000
59.768     991.000
59.783    1051.000
59.797    1022.000
59.812    1059.000
59.826    1005.000
59.841    1017.000
59.855    1061.000
59.870    1047.000
59.884    1056.000
59.899    1036.000
59.913    1056.000
59.928    1080.000
59.942    1099.000
59.957    1027.000
59.971    1033.000
59.986    1034.000
60.000    1061.000
60.015    1072.000
60.029     998.000
60.044     960.000
60.058     982.000
60.073    1012.000
60.087     958.000
60.102    1003.000
60.116    1033.000
60.131    1010.000
60.145     982.000
60.160    1016.000
60.174    1031.000
60.189    1053.000
60.203    1059.000
60.218    1014.000
60.232    1061.000
60.247    1086.000
60.261    1087.000
60.276    1092.000
60.290    1054.000
60.305    1144.000
60.319    1107.000
60.333    1097.000
60.348    1135.000
60.362    1087.000
60.377    1111.000
60.391    1090.000
60.406    1085.000
60.420    1124.000
60.435    1049.000
60.449    1065.000
60.464    1074.000
60.478    1041.000
60.493    1137.000
60.507    1085.000
60.522    1086.000
60.536    1059.000
60.551    1168.000
60.565    1161.000
60.580    1135.000
60.594    1178.000
60.609    1192.000
60.623    1171.000
60.638    1216.000
60.652    1142.000
60.667    1139.000
60.681    1111.000
60.696    1063.000
60.710    1090.000
60.725    1102.000
60.739    1029.000
60.754    1038.000
60.768    1021.000
60.783    1005.000
60.797    1086.000
60.812    1072.000
60.826     955.000
60.841    1008.000
60.855    1019.000
60.870     971.000
60.884    1003.000
60.899    1017.000
60.913    1025.000
60.928     984.000
60.942    1025.000
60.957    1050.000
60.971    1075.000
60.985    1007.000
61.000    1054.000
61.014    1029.000
61.029    1024.000
61.043     997.000
61.058    1005.000
61.072     983.000
61.087     974.000
61.101    1050.000
61.116    1045.000
61.130     980.000
61.145    1009.000
61.159     973.000
61.174    1057.000
61.188     976.000
61.203    1037.000
61.217    1035.000
61.232    1014.000
61.246     995.000
61.261    1042.000
61.275     987.000
61.290    1004.000
61.304     989.000
61.319     983.000
61.333    1037.000
61.348    1033.000
61.362     946.000
61.377    1014.000
61.391     968.000
61.406    1018.000
61.420     974.000
61.435    1041.000
61.449     950.000
61.464    1008.000
61.478    1025.000
61.493    1126.000
61.507    1011.000
61.522    1072.000
61.536    1049.000
61.551    1063.000
61.565    1037.000
61.580     998.000
61.594    1049.000
61.609     952.000
61.623    1046.000
61.638    1096.000
61.652    1016.000
61.666    1015.000
61.681    1078.000
61.695    1054.000
61.710    1016.000
61.724     967.000
61.739    1043.000
61.753     987.000
61.768     975.000
61.782     996.000
61.797    1022.000
61.811     995.000
61.826    1000.000
61.840    1038.000
61.855     955.000
61.869     972.000
61.884     996.000
61.898     971.000
61.913     989.000
61.927     928.000
61.942    1013.000
61.956    1064.000
61.971     994.000
61.985    1019.000
62.000    1003.000
62.014     974.000
62.029     999.000
62.043     986.000
62.058     996.000
62.072    1057.000
62.087    1019.000
62.101     999.000
62.116    1021.000
62.130    1069.000
62.145    1091.000
62.159    1026.000
62.174    1098.000
62.188    1057.000
62.203    1116.000
62.217    1082.000
62.232    1071.000
62.246    1067.000
62.261    1095.000
62.275    1154.000
62.290    1138.000
62.304    1038.000
62.318    1122.000
62.333    1061.000
62.347    1034.000
62.362    1067.000
62.376    1015.000
62.391     974.000
62.405     993.000
62.420     922.000
62.434     990.000
62.449     994.000
62.463    1008.000
62.478    1002.000
62.492    1035.000
62.507     914.000
62.521     951.000
62.536     931.000
62.550    1017.000
62.565     977.000
62.579    1003.000
62.594     946.000
62.608     998.000
62.623     958.000
62.637     993.000
62.652     956.000
62.666     964.000
62.681     955.000
62.695    1013.000
62.710     966.000
62.724     961.000
62.739     981.000
62.753    1013.000
62.768    1006.000
62.782     960.000
62.797    1013.000
62.811     969.000
62.826     940.000
62.840     986.000
62.855     974.000
62.869     971.000
62.884     937.000
62.898     969.000
62.913     971.000
62.927    1022.000
62.942     990.000
62.956     952.000
62.970     976.000
62.985     937.000
62.999     915.000
63.014     952.000
63.028    1003.000
63.043     976.000
63.057     997.000
63.072    1003.000
63.086     945.000
63.101     958.000
63.115    1010.000
63.130    1042.000
63.144     934.000
63.159     956.000
63.173     990.000
63.188     956.000
63.202     963.000
63.217     896.000
63.231     903.000
63.246     945.000
63.260     941.000
63.275     970.000
63.289     959.000
63.304     983.000
63.318     930.000
63.333     997.000
63.347     998.000
63.362     985.000
63.376     978.000
63.391     992.000
63.405     969.000
63.420     964.000
63.434     962.000
63.449     996.000
63.463     944.000
63.478     975.000
63.492     999.000
63.507    1005.000
63.521     957.000
63.536    1008.000
63.550     960.000
63.565     965.000
63.579     933.000
63.594     899.000
63.608     897.000
63.622     932.000
63.637     932.000
63.651    1008.000
63.666     936.000
63.680    1020.000
63.695     964.000
63.709    1014.000
63.724     970.000
63.738     976.000
63.753     988.000
63.767     965.000
63.782    1009.000
63.796    1049.000
63.811    1014.000
63.825     996.000
63.840     957.000
63.854    1006.000
63.869     995.000
63.883    1011.000
63.898     977.000
63.912    1010.000
63.927     981.000
63.941    1008.000
63.956     969.000
63.970    1007.000
63.985     983.000
63.999    1035.000
64.014     961.000
64.028     964.000
64.043    1028.000
64.057    1058.000
64.072     946.000
64.086    1037.000
64.101    1009.000
64.115    1052.000
64.130    1008.000
64.144    1025.000
64.159    1024.000
64.173    1034.000
64.188    1015.000
64.202    1035.000
64.217    1060.000
64.231    1051.000
64.246    1037.000
64.260     992.000
64.274    1017.000
64.289    1022.000
64.303    1023.000
64.318    1122.000
64.332    1028.000
64.347     993.000
64.361    1054.000
64.376    1031.000
64.390     996.000
64.405     956.000
64.419     984.000
64.434     994.000
64.448    1024.000
64.463    1045.000
64.477    1008.000
64.492    1058.000
64.506    1060.000
64.521    1024.000
64.535    1064.000
64.550     991.000
64.564     999.000
64.579    1059.000
64.593    1014.000
64.608    1063.000
64.622    1009.000
64.637    1036.000
64.651    1020.000
64.666    1033.000
64.680     976.000
64.695     973.000
64.709    1009.000
64.724    1075.000
64.738     972.000
64.753    1105.000
64.767    1063.000
64.782    1041.000
64.796     994.000
64.811     995.000
64.825     992.000
64.840     984.000
64.854     969.000
64.869     973.000
64.883    1079.000
64.898     991.000
64.912    1048.000
64.927    1049.000
64.941    1029.000
64.955    1047.000
